0
0
0
0
1
0
0
0
0
1
0
0
0
0
1
0
0
0
0
1
0
0
0
0
1
0
0
0
0
1
0
0
0
0
1
1
0
0
0
1
1
0
0
0
1
3
0
0
0
1
4
0
0
0
1
6
0
0
0
1
7
0
0
0
1
9
0
0
0
1
11
0
0
0
1
12
0
0
0
1
13
0
0
0
1
13
0
0
0
1
14
0
0
0
1
19
0
0
0
1
32
0
0
0
1
58
0
0
0
1
95
0
0
0
1
131
0
0
0
1
159
0
0
0
1
175
0
0
0
1
182
0
0
0
1
182
0
0
0
1
182
0
0
0
1
183
0
0
0
1
185
0
0
0
1
188
0
0
0
1
191
0
0
0
1
194
0
0
0
1
197
0
0
0
1
201
0
0
0
1
204
0
0
0
1
206
0
0
0
1
207
0
0
0
1
207
0
0
0
1
206
0
0
0
1
205
0
0
0
1
204
0
0
0
1
203
0
0
0
1
201
0
0
0
1
200
0
0
0
1
199
0
0
0
1
199
0
0
0
1
198
0
0
0
1
194
0
0
0
1
180
0
0
0
1
154
0
0
0
1
118
0
0
0
1
82
0
0
0
1
54
0
0
0
1
38
0
0
0
1
31
0
0
0
1
30
0
0
0
1
30
0
0
0
1
30
0
0
0
1
27
0
0
0
1
25
0
0
0
1
22
0
0
0
1
19
0
0
0
1
15
0
0
0
1
12
0
0
0
1
9
0
0
0
1
6
0
0
0
1
4
0
0
0
1
3
0
0
0
1
2
0
0
0
1
1
0
0
0
1
1
0
0
0
1
1
0
0
0
1
1
0
0
0
1
1
0
0
0
1
0
0
0
0
1
0
0
0
0
1
0
0
0
0
1
0
0
0
0
1
0
0
0
0
1
0
0
0
0
1
0
0
0
0
1
0
0
0
0
1
0
0
0
0
1
0
0
0
0
1
0
0
0
0
1
0
0
0
0
1
0
0
0
0
1
0
0
0
0
1
0
0
0
0
1
0
0
0
0
1
1
0
0
0
1
1
0
0
0
1
1
0
0
0
1
1
0
0
0
1
2
0
0
0
1
2
0
0
0
1
2
0
0
0
1
2
0
0
0
1
3
0
0
0
1
3
0
0
0
1
3
0
0
0
1
3
0
0
0
1
4
0
0
0
1
4
0
0
0
1
4
0
0
0
1
4
0
0
0
1
4
0
0
0
1
4
0
0
0
1
4
0
0
0
1
5
0
0
0
1
5
0
0
0
1
6
0
0
0
1
7
0
0
0
1
9
0
0
0
1
13
0
0
0
1
19
0
0
0
1
29
0
0
0
1
44
0
0
0
1
64
0
0
0
1
90
0
0
0
1
120
0
0
0
1
152
0
0
0
1
181
0
0
0
1
205
0
0
0
1
221
0
0
0
1
226
0
0
0
1
226
0
0
0
1
237
0
0
0
1
290
0
0
0
1
422
0
0
0
1
674
0
0
0
1
1055
0
0
0
1
1543
0
0
0
1
2081
0
0
0
1
2569
0
0
0
1
2916
0
0
0
1
3088
0
0
0
1
3124
0
0
0
1
3126
0
0
0
1
3202
0
0
0
1
3410
0
0
0
1
3736
0
0
0
1
4102
0
0
0
1
4440
0
0
0
1
4707
0
0
0
1
4888
0
0
0
1
4994
0
0
0
1
5047
0
0
0
1
5062
0
0
0
1
5055
158
79
1
0
5034
158
79
0
0
5005
158
79
0
0
4975
158
79
0
0
4951
158
79
0
0
4935
158
79
0
0
4932
158
79
0
0
4936
158
79
0
0
4933
158
79
0
0
4889
158
79
0
0
4767
158
79
0
0
4523
158
79
0
0
4148
158
79
0
0
3665
158
79
0
0
3130
158
79
0
0
2644
158
79
0
0
2299
158
79
0
0
2127
158
79
0
0
2091
158
79
0
0
2089
158
79
0
0
2012
158
79
0
0
1804
158
79
0
0
1478
158
79
0
0
1110
158
79
0
0
771
158
79
0
0
503
158
79
0
0
318
158
79
0
0
203
158
79
0
0
137
158
79
0
0
101
158
79
0
0
82
158
79
0
0
74
158
79
0
0
71
158
79
0
0
70
158
79
0
0
70
158
79
0
0
70
158
79
0
0
68
158
79
0
0
63
158
79
0
0
55
158
79
0
0
46
158
79
0
0
36
158
79
0
0
28
158
79
0
0
22
158
79
0
0
17
158
79
0
0
14
158
79
0
0
12
158
79
0
0
11
158
79
0
0
10
158
79
0
0
9
158
79
0
0
9
158
79
0
0
9
158
79
0
0
9
158
79
0
0
10
158
79
0
0
10
158
79
0
0
9
158
79
0
0
8
158
79
0
0
6
158
79
0
0
5
158
79
0
0
5
158
79
0
0
5
158
79
0
0
5
158
79
0
0
6
158
79
0
0
6
158
79
0
0
6
158
79
0
0
6
158
79
0
0
6
158
79
0
0
6
158
79
0
0
7
158
79
0
0
7
158
79
0
0
7
158
79
0
0
7
158
79
0
0
7
158
79
0
0
7
158
79
0
0
7
158
79
0
0
7
158
79
0
0
7
158
79
0
0
7
158
79
0
0
7
158
79
0
0
7
158
79
0
0
7
158
79
0
0
7
158
79
0
0
7
158
79
0
0
7
158
79
0
0
7
158
79
0
0
6
158
79
0
0
6
158
79
0
0
5
158
79
0
0
5
158
79
0
0
4
158
79
0
0
3
158
79
0
0
3
158
79
0
0
3
158
79
0
0
3
158
79
0
0
3
158
79
0
0
3
158
79
0
0
2
158
79
0
0
2
158
79
0
0
2
158
79
0
0
2
158
79
0
0
3
158
79
0
0
3
158
79
0
0
3
158
79
0
0
4
158
79
0
0
4
158
79
0
0
4
158
79
0
0
4
158
79
0
0
4
158
79
0
0
4
158
79
0
0
4
158
79
0
0
4
158
79
0
0
4
158
79
0
0
4
158
79
0
0
4
158
79
0
0
4
158
79
0
0
4
158
79
0
0
4
158
79
0
0
4
158
79
0
0
5
158
79
0
0
6
158
79
0
0
6
158
79
0
0
7
158
79
0
0
8
158
79
0
0
9
158
79
0
0
12
158
79
0
0
17
158
79
0
0
24
158
79
0
0
36
158
79
0
0
53
158
79
0
0
75
158
79
0
0
101
158
79
0
0
130
158
79
0
0
160
158
79
0
0
186
158
79
0
0
206
158
79
0
0
216
158
79
0
0
217
158
79
0
0
220
158
79
0
0
252
158
79
0
0
349
158
79
0
0
552
158
79
0
0
885
158
79
0
0
1333
158
79
0
0
1846
158
79
0
0
2342
158
79
0
0
2738
158
79
0
0
2973
158
79
0
0
3056
158
79
0
0
3060
158
79
0
0
3082
158
79
0
0
3201
158
79
0
0
3436
158
79
0
0
3742
158
79
0
0
4061
158
79
0
0
4328
158
79
0
0
4526
158
79
0
0
4660
158
79
0
0
4738
158
79
0
0
4773
158
79
0
0
4783
158
79
0
0
4774
287
143
1
0
4752
287
143
0
0
4724
287
143
0
0
4698
287
143
0
0
4678
287
143
0
0
4671
287
143
0
0
4677
287
143
0
0
4683
287
143
0
0
4662
287
143
0
0
4575
287
143
0
0
4382
287
143
0
0
4056
287
143
0
0
3613
287
143
0
0
3103
287
143
0
0
2609
287
143
0
0
2215
287
143
0
0
1980
287
143
0
0
1897
287
143
0
0
1893
287
143
0
0
1871
287
143
0
0
1751
287
143
0
0
1515
287
143
0
0
1208
287
143
0
0
888
287
143
0
0
618
287
143
0
0
416
287
143
0
0
275
287
143
0
0
185
287
143
0
0
132
287
143
0
0
100
287
143
0
0
83
287
143
0
0
76
287
143
0
0
75
287
143
0
0
75
287
143
0
0
75
287
143
0
0
71
287
143
0
0
65
287
143
0
0
55
287
143
0
0
44
287
143
0
0
34
287
143
0
0
24
287
143
0
0
17
287
143
0
0
13
287
143
0
0
10
287
143
0
0
8
287
143
0
0
8
287
143
0
0
7
287
143
0
0
7
287
143
0
0
7
287
143
0
0
7
287
143
0
0
7
287
143
0
0
7
287
143
0
0
7
287
143
0
0
7
287
143
0
0
7
287
143
0
0
7
287
143
0
0
7
287
143
0
0
7
287
143
0
0
6
287
143
0
0
6
287
143
0
0
5
287
143
0
0
5
287
143
0
0
4
287
143
0
0
4
287
143
0
0
4
287
143
0
0
4
287
143
0
0
4
287
143
0
0
4
287
143
0
0
4
287
143
0
0
4
287
143
0
0
4
287
143
0
0
3
287
143
0
0
3
287
143
0
0
3
287
143
0
0
3
287
143
0
0
2
287
143
0
0
2
287
143
0
0
2
287
143
0
0
2
287
143
0
0
1
287
143
0
0
1
287
143
0
0
1
287
143
0
0
1
287
143
0
0
1
287
143
0
0
1
287
143
0
0
1
287
143
0
0
1
287
143
0
0
1
287
143
0
0
1
287
143
0
0
1
287
143
0
0
1
287
143
0
0
1
287
143
0
0
1
287
143
0
0
1
287
143
0
0
2
287
143
0
0
2
287
143
0
0
2
287
143
0
0
2
287
143
0
0
2
287
143
0
0
2
287
143
0
0
2
287
143
0
0
2
287
143
0
0
2
287
143
0
0
2
287
143
0
0
2
287
143
0
0
3
287
143
0
0
4
287
143
0
0
4
287
143
0
0
5
287
143
0
0
5
287
143
0
0
5
287
143
0
0
5
287
143
0
0
5
287
143
0
0
6
287
143
0
0
6
287
143
0
0
8
287
143
0
0
9
287
143
0
0
11
287
143
0
0
13
287
143
0
0
15
287
143
0
0
17
287
143
0
0
19
287
143
0
0
23
287
143
0
0
30
287
143
0
0
40
287
143
0
0
55
287
143
0
0
76
287
143
0
0
100
287
143
0
0
128
287
143
0
0
156
287
143
0
0
182
287
143
0
0
203
287
143
0
0
214
287
143
0
0
217
287
143
0
0
217
287
143
0
0
239
287
143
0
0
318
287
143
0
0
495
287
143
0
0
795
287
143
0
0
1213
287
143
0
0
1709
287
143
0
0
2214
287
143
0
0
2639
287
143
0
0
2921
287
143
0
0
3040
287
143
0
0
3057
287
143
0
0
3063
287
143
0
0
3152
287
143
0
0
3364
287
143
0
0
3675
287
143
0
0
4027
287
143
0
0
4351
287
143
0
0
4611
287
143
0
0
4797
287
143
0
0
4918
287
143
0
0
4987
287
143
0
0
5017
287
143
0
0
5018
287
143
0
0
5000
408
204
1
0
4974
408
204
0
0
4948
408
204
0
0
4930
408
204
0
0
4927
408
204
0
0
4937
408
204
0
0
4952
408
204
0
0
4947
408
204
0
0
4882
408
204
0
0
4716
408
204
0
0
4424
408
204
0
0
4013
408
204
0
0
3520
408
204
0
0
3018
408
204
0
0
2594
408
204
0
0
2312
408
204
0
0
2193
408
204
0
0
2175
408
204
0
0
2166
408
204
0
0
2076
408
204
0
0
1863
408
204
0
0
1549
408
204
0
0
1196
408
204
0
0
869
408
204
0
0
605
408
204
0
0
413
408
204
0
0
281
408
204
0
0
197
408
204
0
0
147
408
204
0
0
121
408
204
0
0
111
408
204
0
0
110
408
204
0
0
109
408
204
0
0
106
408
204
0
0
98
408
204
0
0
84
408
204
0
0
68
408
204
0
0
50
408
204
0
0
36
408
204
0
0
24
408
204
0
0
15
408
204
0
0
9
408
204
0
0
5
408
204
0
0
3
408
204
0
0
2
408
204
0
0
1
408
204
0
0
1
408
204
0
0
1
408
204
0
0
2
408
204
0
0
2
408
204
0
0
2
408
204
0
0
3
408
204
0
0
3
408
204
0
0
3
408
204
0
0
3
408
204
0
0
3
408
204
0
0
3
408
204
0
0
3
408
204
0
0
3
408
204
0
0
3
408
204
0
0
3
408
204
0
0
3
408
204
0
0
3
408
204
0
0
3
408
204
0
0
3
408
204
0
0
4
408
204
0
0
4
408
204
0
0
4
408
204
0
0
4
408
204
0
0
4
408
204
0
0
4
408
204
0
0
4
408
204
0
0
4
408
204
0
0
4
408
204
0
0
3
408
204
0
0
3
408
204
0
0
3
408
204
0
0
3
408
204
0
0
2
408
204
0
0
2
408
204
0
0
2
408
204
0
0
1
408
204
0
0
1
408
204
0
0
1
408
204
0
0
1
408
204
0
0
1
408
204
0
0
1
408
204
0
0
1
408
204
0
0
1
408
204
0
0
1
408
204
0
0
1
408
204
0
0
0
408
204
0
0
0
408
204
0
0
0
408
204
0
0
0
408
204
0
0
0
408
204
0
0
0
408
204
0
0
0
408
204
0
0
0
408
204
0
0
1
408
204
0
0
1
408
204
0
0
1
408
204
0
0
2
408
204
0
0
3
408
204
0
0
3
408
204
0
0
3
408
204
0
0
4
408
204
0
0
4
408
204
0
0
4
408
204
0
0
4
408
204
0
0
4
408
204
0
0
4
408
204
0
0
4
408
204
0
0
4
408
204
0
0
4
408
204
0
0
5
408
204
0
0
6
408
204
0
0
6
408
204
0
0
8
408
204
0
0
9
408
204
0
0
10
408
204
0
0
13
408
204
0
0
18
408
204
0
0
25
408
204
0
0
37
408
204
0
0
53
408
204
0
0
76
408
204
0
0
102
408
204
0
0
132
408
204
0
0
163
408
204
0
0
193
408
204
0
0
217
408
204
0
0
231
408
204
0
0
233
408
204
0
0
234
408
204
0
0
256
408
204
0
0
339
408
204
0
0
522
408
204
0
0
842
408
204
0
0
1290
408
204
0
0
1828
408
204
0
0
2374
408
204
0
0
2838
408
204
0
0
3145
408
204
0
0
3281
408
204
0
0
3302
408
204
0
0
3310
408
204
0
0
3414
408
204
0
0
3665
408
204
0
0
4031
408
204
0
0
4433
408
204
0
0
4798
408
204
0
0
5075
408
204
0
0
5255
408
204
0
0
5355
408
204
0
0
5398
408
204
0
0
5404
408
204
0
0
5388
526
263
1
0
5362
526
263
0
0
5330
526
263
0
0
5300
526
263
0
0
5276
526
263
0
0
5264
526
263
0
0
5266
526
263
0
0
5272
526
263
0
0
5257
526
263
0
0
5182
526
263
0
0
5007
526
263
0
0
4693
526
263
0
0
4250
526
263
0
0
3715
526
263
0
0
3171
526
263
0
0
2708
526
263
0
0
2402
526
263
0
0
2266
526
263
0
0
2245
526
263
0
0
2236
526
263
0
0
2131
526
263
0
0
1879
526
263
0
0
1512
526
263
0
0
1108
526
263
0
0
741
526
263
0
0
459
526
263
0
0
271
526
263
0
0
159
526
263
0
0
100
526
263
0
0
73
526
263
0
0
62
526
263
0
0
59
526
263
0
0
58
526
263
0
0
58
526
263
0
0
57
526
263
0
0
55
526
263
0
0
50
526
263
0
0
44
526
263
0
0
36
526
263
0
0
28
526
263
0
0
21
526
263
0
0
14
526
263
0
0
9
526
263
0
0
6
526
263
0
0
4
526
263
0
0
3
526
263
0
0
2
526
263
0
0
2
526
263
0
0
2
526
263
0
0
2
526
263
0
0
2
526
263
0
0
2
526
263
0
0
2
526
263
0
0
2
526
263
0
0
3
526
263
0
0
3
526
263
0
0
3
526
263
0
0
3
526
263
0
0
3
526
263
0
0
3
526
263
0
0
3
526
263
0
0
3
526
263
0
0
3
526
263
0
0
3
526
263
0
0
3
526
263
0
0
3
526
263
0
0
3
526
263
0
0
3
526
263
0
0
3
526
263
0
0
3
526
263
0
0
3
526
263
0
0
2
526
263
0
0
2
526
263
0
0
2
526
263
0
0
2
526
263
0
0
2
526
263
0
0
2
526
263
0
0
2
526
263
0
0
2
526
263
0
0
1
526
263
0
0
1
526
263
0
0
1
526
263
0
0
1
526
263
0
0
1
526
263
0
0
1
526
263
0
0
1
526
263
0
0
1
526
263
0
0
0
526
263
0
0
0
526
263
0
0
0
526
263
0
0
0
526
263
0
0
0
526
263
0
0
0
526
263
0
0
0
526
263
0
0
0
526
263
0
0
0
526
263
0
0
0
526
263
0
0
0
526
263
0
0
0
526
263
0
0
0
526
263
0
0
1
526
263
0
0
1
526
263
0
0
1
526
263
0
0
2
526
263
0
0
2
526
263
0
0
3
526
263
0
0
3
526
263
0
0
3
526
263
0
0
3
526
263
0
0
3
526
263
0
0
3
526
263
0
0
3
526
263
0
0
3
526
263
0
0
3
526
263
0
0
4
526
263
0
0
4
526
263
0
0
4
526
263
0
0
5
526
263
0
0
6
526
263
0
0
7
526
263
0
0
8
526
263
0
0
11
526
263
0
0
15
526
263
0
0
21
526
263
0
0
32
526
263
0
0
47
526
263
0
0
68
526
263
0
0
94
526
263
0
0
124
526
263
0
0
155
526
263
0
0
187
526
263
0
0
215
526
263
0
0
233
526
263
0
0
240
526
263
0
0
240
526
263
0
0
249
526
263
0
0
300
526
263
0
0
432
526
263
0
0
678
526
263
0
0
1046
526
263
0
0
1510
526
263
0
0
2006
526
263
0
0
2470
526
263
0
0
2810
526
263
0
0
2997
526
263
0
0
3050
526
263
0
0
3050
526
263
0
0
3090
526
263
0
0
3239
526
263
0
0
3496
526
263
0
0
3815
526
263
0
0
4132
526
263
0
0
4404
526
263
0
0
4606
526
263
0
0
4736
526
263
0
0
4811
526
263
0
0
4844
526
263
0
0
4846
526
263
0
0
4829
611
305
1
0
4802
611
305
0
0
4770
611
305
0
0
4742
611
305
0
0
4725
611
305
0
0
4723
611
305
0
0
4733
611
305
0
0
4735
611
305
0
0
4697
611
305
0
0
4576
611
305
0
0
4340
611
305
0
0
3979
611
305
0
0
3519
611
305
0
0
3026
611
305
0
0
2564
611
305
0
0
2226
611
305
0
0
2039
611
305
0
0
1986
611
305
0
0
1986
611
305
0
0
1945
611
305
0
0
1796
611
305
0
0
1538
611
305
0
0
1218
611
305
0
0
897
611
305
0
0
621
611
305
0
0
413
611
305
0
0
272
611
305
0
0
182
611
305
0
0
129
611
305
0
0
101
611
305
0
0
88
611
305
0
0
83
611
305
0
0
82
611
305
0
0
82
611
305
0
0
80
611
305
0
0
74
611
305
0
0
65
611
305
0
0
53
611
305
0
0
41
611
305
0
0
29
611
305
0
0
19
611
305
0
0
13
611
305
0
0
8
611
305
0
0
4
611
305
0
0
2
611
305
0
0
1
611
305
0
0
0
611
305
0
0
0
611
305
0
0
0
611
305
0
0
0
611
305
0
0
0
611
305
0
0
0
611
305
0
0
0
611
305
0
0
0
611
305
0
0
0
611
305
0
0
0
611
305
0
0
1
611
305
0
0
1
611
305
0
0
1
611
305
0
0
1
611
305
0
0
1
611
305
0
0
1
611
305
0
0
1
611
305
0
0
1
611
305
0
0
1
611
305
0
0
1
611
305
0
0
2
611
305
0
0
2
611
305
0
0
2
611
305
0
0
2
611
305
0
0
2
611
305
0
0
2
611
305
0
0
2
611
305
0
0
2
611
305
0
0
2
611
305
0
0
2
611
305
0
0
2
611
305
0
0
2
611
305
0
0
2
611
305
0
0
2
611
305
0
0
2
611
305
0
0
2
611
305
0
0
2
611
305
0
0
2
611
305
0
0
1
611
305
0
0
1
611
305
0
0
1
611
305
0
0
1
611
305
0
0
1
611
305
0
0
1
611
305
0
0
1
611
305
0
0
1
611
305
0
0
1
611
305
0
0
1
611
305
0
0
1
611
305
0
0
1
611
305
0
0
1
611
305
0
0
1
611
305
0
0
1
611
305
0
0
1
611
305
0
0
2
611
305
0
0
2
611
305
0
0
2
611
305
0
0
2
611
305
0
0
3
611
305
0
0
3
611
305
0
0
3
611
305
0
0
4
611
305
0
0
4
611
305
0
0
4
611
305
0
0
4
611
305
0
0
4
611
305
0
0
4
611
305
0
0
4
611
305
0
0
4
611
305
0
0
4
611
305
0
0
4
611
305
0
0
5
611
305
0
0
5
611
305
0
0
6
611
305
0
0
6
611
305
0
0
7
611
305
0
0
9
611
305
0
0
13
611
305
0
0
20
611
305
0
0
30
611
305
0
0
44
611
305
0
0
65
611
305
0
0
89
611
305
0
0
117
611
305
0
0
144
611
305
0
0
170
611
305
0
0
191
611
305
0
0
202
611
305
0
0
204
611
305
0
0
205
611
305
0
0
226
611
305
0
0
299
611
305
0
0
462
611
305
0
0
744
611
305
0
0
1155
611
305
0
0
1651
611
305
0
0
2155
611
305
0
0
2588
611
305
0
0
2870
611
305
0
0
2994
611
305
0
0
3010
611
305
0
0
3021
611
305
0
0
3121
611
305
0
0
3350
611
305
0
0
3676
611
305
0
0
4035
611
305
0
0
4353
611
305
0
0
4596
611
305
0
0
4757
611
305
0
0
4852
611
305
0
0
4899
611
305
0
0
4910
611
305
0
0
4901
688
344
1
0
4877
688
344
0
0
4850
688
344
0
0
4824
688
344
0
0
4804
688
344
0
0
4795
688
344
0
0
4798
688
344
0
0
4804
688
344
0
0
4793
688
344
0
0
4729
688
344
0
0
4576
688
344
0
0
4301
688
344
0
0
3896
688
344
0
0
3403
688
344
0
0
2901
688
344
0
0
2470
688
344
0
0
2189
688
344
0
0
2065
688
344
0
0
2050
688
344
0
0
2039
688
344
0
0
1938
688
344
0
0
1709
688
344
0
0
1382
688
344
0
0
1021
688
344
0
0
701
688
344
0
0
455
688
344
0
0
287
688
344
0
0
182
688
344
0
0
121
688
344
0
0
89
688
344
0
0
74
688
344
0
0
69
688
344
0
0
69
688
344
0
0
69
688
344
0
0
68
688
344
0
0
65
688
344
0
0
60
688
344
0
0
52
688
344
0
0
43
688
344
0
0
33
688
344
0
0
24
688
344
0
0
16
688
344
0
0
11
688
344
0
0
8
688
344
0
0
5
688
344
0
0
3
688
344
0
0
2
688
344
0
0
2
688
344
0
0
2
688
344
0
0
2
688
344
0
0
2
688
344
0
0
2
688
344
0
0
2
688
344
0
0
2
688
344
0
0
2
688
344
0
0
3
688
344
0
0
3
688
344
0
0
3
688
344
0
0
3
688
344
0
0
3
688
344
0
0
2
688
344
0
0
2
688
344
0
0
2
688
344
0
0
2
688
344
0
0
2
688
344
0
0
2
688
344
0
0
2
688
344
0
0
2
688
344
0
0
2
688
344
0
0
2
688
344
0
0
2
688
344
0
0
2
688
344
0
0
2
688
344
0
0
2
688
344
0
0
2
688
344
0
0
2
688
344
0
0
2
688
344
0
0
1
688
344
0
0
1
688
344
0
0
1
688
344
0
0
1
688
344
0
0
1
688
344
0
0
1
688
344
0
0
1
688
344
0
0
1
688
344
0
0
1
688
344
0
0
0
688
344
0
0
0
688
344
0
0
1
688
344
0
0
1
688
344
0
0
1
688
344
0
0
1
688
344
0
0
1
688
344
0
0
1
688
344
0
0
1
688
344
0
0
1
688
344
0
0
1
688
344
0
0
1
688
344
0
0
2
688
344
0
0
2
688
344
0
0
2
688
344
0
0
2
688
344
0
0
3
688
344
0
0
3
688
344
0
0
4
688
344
0
0
5
688
344
0
0
5
688
344
0
0
6
688
344
0
0
6
688
344
0
0
6
688
344
0
0
6
688
344
0
0
6
688
344
0
0
6
688
344
0
0
6
688
344
0
0
6
688
344
0
0
6
688
344
0
0
6
688
344
0
0
7
688
344
0
0
8
688
344
0
0
9
688
344
0
0
10
688
344
0
0
11
688
344
0
0
13
688
344
0
0
15
688
344
0
0
18
688
344
0
0
23
688
344
0
0
31
688
344
0
0
44
688
344
0
0
62
688
344
0
0
84
688
344
0
0
108
688
344
0
0
134
688
344
0
0
157
688
344
0
0
176
688
344
0
0
186
688
344
0
0
188
688
344
0
0
188
688
344
0
0
201
688
344
0
0
257
688
344
0
0
389
688
344
0
0
629
688
344
0
0
990
688
344
0
0
1438
688
344
0
0
1918
688
344
0
0
2337
688
344
0
0
2625
688
344
0
0
2757
688
344
0
0
2778
688
344
0
0
2782
688
344
0
0
2861
688
344
0
0
3063
688
344
0
0
3362
688
344
0
0
3694
688
344
0
0
3993
688
344
0
0
4219
688
344
0
0
4369
688
344
0
0
4450
688
344
0
0
4487
688
344
0
0
4496
688
344
0
0
4485
742
371
1
0
4466
742
371
0
0
4441
742
371
0
0
4417
742
371
0
0
4398
742
371
0
0
4388
742
371
0
0
4387
742
371
0
0
4391
742
371
0
0
4384
742
371
0
0
4336
742
371
0
0
4214
742
371
0
0
3981
742
371
0
0
3627
742
371
0
0
3184
742
371
0
0
2707
742
371
0
0
2291
742
371
0
0
2004
742
371
0
0
1873
742
371
0
0
1851
742
371
0
0
1846
742
371
0
0
1766
742
371
0
0
1564
742
371
0
0
1263
742
371
0
0
930
742
371
0
0
629
742
371
0
0
399
742
371
0
0
245
742
371
0
0
155
742
371
0
0
105
742
371
0
0
79
742
371
0
0
67
742
371
0
0
62
742
371
0
0
61
742
371
0
0
61
742
371
0
0
61
742
371
0
0
60
742
371
0
0
59
742
371
0
0
55
742
371
0
0
48
742
371
0
0
40
742
371
0
0
30
742
371
0
0
22
742
371
0
0
15
742
371
0
0
10
742
371
0
0
7
742
371
0
0
5
742
371
0
0
4
742
371
0
0
3
742
371
0
0
3
742
371
0
0
3
742
371
0
0
3
742
371
0
0
3
742
371
0
0
4
742
371
0
0
4
742
371
0
0
5
742
371
0
0
5
742
371
0
0
6
742
371
0
0
6
742
371
0
0
6
742
371
0
0
6
742
371
0
0
6
742
371
0
0
5
742
371
0
0
5
742
371
0
0
5
742
371
0
0
5
742
371
0
0
5
742
371
0
0
6
742
371
0
0
6
742
371
0
0
6
742
371
0
0
6
742
371
0
0
6
742
371
0
0
7
742
371
0
0
7
742
371
0
0
7
742
371
0
0
7
742
371
0
0
7
742
371
0
0
7
742
371
0
0
7
742
371
0
0
7
742
371
0
0
7
742
371
0
0
7
742
371
0
0
7
742
371
0
0
6
742
371
0
0
6
742
371
0
0
5
742
371
0
0
5
742
371
0
0
4
742
371
0
0
4
742
371
0
0
4
742
371
0
0
4
742
371
0
0
4
742
371
0
0
4
742
371
0
0
4
742
371
0
0
3
742
371
0
0
3
742
371
0
0
3
742
371
0
0
3
742
371
0
0
3
742
371
0
0
3
742
371
0
0
3
742
371
0
0
3
742
371
0
0
4
742
371
0
0
4
742
371
0
0
4
742
371
0
0
5
742
371
0
0
5
742
371
0
0
5
742
371
0
0
5
742
371
0
0
5
742
371
0
0
4
742
371
0
0
4
742
371
0
0
4
742
371
0
0
4
742
371
0
0
5
742
371
0
0
5
742
371
0
0
5
742
371
0
0
6
742
371
0
0
6
742
371
0
0
7
742
371
0
0
7
742
371
0
0
8
742
371
0
0
9
742
371
0
0
11
742
371
0
0
15
742
371
0
0
22
742
371
0
0
31
742
371
0
0
46
742
371
0
0
65
742
371
0
0
89
742
371
0
0
117
742
371
0
0
148
742
371
0
0
179
742
371
0
0
207
742
371
0
0
224
742
371
0
0
230
742
371
0
0
230
742
371
0
0
243
742
371
0
0
307
742
371
0
0
461
742
371
0
0
737
742
371
0
0
1133
742
371
0
0
1621
742
371
0
0
2125
742
371
0
0
2566
742
371
0
0
2879
742
371
0
0
3033
742
371
0
0
3069
742
371
0
0
3069
742
371
0
0
3125
742
371
0
0
3292
742
371
0
0
3562
742
371
0
0
3881
742
371
0
0
4192
742
371
0
0
4458
742
371
0
0
4654
742
371
0
0
4786
742
371
0
0
4861
742
371
0
0
4898
742
371
0
0
4904
742
371
0
0
4889
803
401
1
0
4860
803
401
0
0
4828
803
401
0
0
4801
803
401
0
0
4789
803
401
0
0
4792
803
401
0
0
4804
803
401
0
0
4805
803
401
0
0
4755
803
401
0
0
4613
803
401
0
0
4347
803
401
0
0
3958
803
401
0
0
3475
803
401
0
0
2973
803
401
0
0
2534
803
401
0
0
2221
803
401
0
0
2068
803
401
0
0
2032
803
401
0
0
2031
803
401
0
0
1975
803
401
0
0
1807
803
401
0
0
1537
803
401
0
0
1217
803
401
0
0
903
803
401
0
0
633
803
401
0
0
431
803
401
0
0
290
803
401
0
0
200
803
401
0
0
144
803
401
0
0
114
803
401
0
0
101
803
401
0
0
98
803
401
0
0
98
803
401
0
0
96
803
401
0
0
92
803
401
0
0
82
803
401
0
0
70
803
401
0
0
55
803
401
0
0
41
803
401
0
0
29
803
401
0
0
19
803
401
0
0
12
803
401
0
0
7
803
401
0
0
4
803
401
0
0
3
803
401
0
0
2
803
401
0
0
1
803
401
0
0
1
803
401
0
0
1
803
401
0
0
1
803
401
0
0
2
803
401
0
0
2
803
401
0
0
2
803
401
0
0
2
803
401
0
0
2
803
401
0
0
2
803
401
0
0
2
803
401
0
0
2
803
401
0
0
2
803
401
0
0
2
803
401
0
0
2
803
401
0
0
2
803
401
0
0
2
803
401
0
0
2
803
401
0
0
2
803
401
0
0
3
803
401
0
0
3
803
401
0
0
3
803
401
0
0
3
803
401
0
0
3
803
401
0
0
3
803
401
0
0
3
803
401
0
0
3
803
401
0
0
3
803
401
0
0
3
803
401
0
0
3
803
401
0
0
3
803
401
0
0
2
803
401
0
0
2
803
401
0
0
2
803
401
0
0
2
803
401
0
0
2
803
401
0
0
2
803
401
0
0
2
803
401
0
0
2
803
401
0
0
1
803
401
0
0
1
803
401
0
0
1
803
401
0
0
1
803
401
0
0
1
803
401
0
0
1
803
401
0
0
1
803
401
0
0
1
803
401
0
0
1
803
401
0
0
1
803
401
0
0
1
803
401
0
0
1
803
401
0
0
2
803
401
0
0
2
803
401
0
0
3
803
401
0
0
4
803
401
0
0
4
803
401
0
0
4
803
401
0
0
5
803
401
0
0
5
803
401
0
0
5
803
401
0
0
5
803
401
0
0
5
803
401
0
0
5
803
401
0
0
5
803
401
0
0
5
803
401
0
0
5
803
401
0
0
4
803
401
0
0
4
803
401
0
0
4
803
401
0
0
4
803
401
0
0
5
803
401
0
0
5
803
401
0
0
6
803
401
0
0
7
803
401
0
0
9
803
401
0
0
11
803
401
0
0
14
803
401
0
0
18
803
401
0
0
23
803
401
0
0
33
803
401
0
0
47
803
401
0
0
66
803
401
0
0
89
803
401
0
0
115
803
401
0
0
142
803
401
0
0
168
803
401
0
0
188
803
401
0
0
200
803
401
0
0
202
803
401
0
0
204
803
401
0
0
226
803
401
0
0
303
803
401
0
0
476
803
401
0
0
770
803
401
0
0
1188
803
401
0
0
1684
803
401
0
0
2197
803
401
0
0
2623
803
401
0
0
2899
803
401
0
0
3014
803
401
0
0
3026
803
401
0
0
3042
803
401
0
0
3161
803
401
0
0
3418
803
401
0
0
3770
803
401
0
0
4142
803
401
0
0
4466
803
401
0
0
4709
803
401
0
0
4862
803
401
0
0
4946
803
401
0
0
4979
803
401
0
0
4983
803
401
0
0
4967
858
429
1
0
4943
858
429
0
0
4915
858
429
0
0
4889
858
429
0
0
4869
858
429
0
0
4861
858
429
0
0
4866
858
429
0
0
4873
858
429
0
0
4861
858
429
0
0
4795
858
429
0
0
4633
858
429
0
0
4348
858
429
0
0
3938
858
429
0
0
3447
858
429
0
0
2939
858
429
0
0
2515
858
429
0
0
2240
858
429
0
0
2124
858
429
0
0
2112
858
429
0
0
2096
858
429
0
0
1976
858
429
0
0
1718
858
429
0
0
1365
858
429
0
0
991
858
429
0
0
664
858
429
0
0
418
858
429
0
0
260
858
429
0
0
166
858
429
0
0
119
858
429
0
0
96
858
429
0
0
88
858
429
0
0
86
858
429
0
0
86
858
429
0
0
86
858
429
0
0
85
858
429
0
0
81
858
429
0
0
74
858
429
0
0
66
858
429
0
0
55
858
429
0
0
44
858
429
0
0
34
858
429
0
0
24
858
429
0
0
17
858
429
0
0
11
858
429
0
0
7
858
429
0
0
5
858
429
0
0
4
858
429
0
0
4
858
429
0
0
4
858
429
0
0
4
858
429
0
0
5
858
429
0
0
5
858
429
0
0
5
858
429
0
0
5
858
429
0
0
5
858
429
0
0
5
858
429
0
0
5
858
429
0
0
4
858
429
0
0
4
858
429
0
0
4
858
429
0
0
3
858
429
0
0
3
858
429
0
0
3
858
429
0
0
4
858
429
0
0
4
858
429
0
0
4
858
429
0
0
4
858
429
0
0
4
858
429
0
0
4
858
429
0
0
4
858
429
0
0
4
858
429
0
0
4
858
429
0
0
4
858
429
0
0
4
858
429
0
0
4
858
429
0
0
4
858
429
0
0
4
858
429
0
0
3
858
429
0
0
3
858
429
0
0
3
858
429
0
0
3
858
429
0
0
3
858
429
0
0
2
858
429
0
0
2
858
429
0
0
2
858
429
0
0
1
858
429
0
0
1
858
429
0
0
1
858
429
0
0
1
858
429
0
0
1
858
429
0
0
1
858
429
0
0
1
858
429
0
0
1
858
429
0
0
1
858
429
0
0
0
858
429
0
0
0
858
429
0
0
0
858
429
0
0
0
858
429
0
0
0
858
429
0
0
0
858
429
0
0
1
858
429
0
0
1
858
429
0
0
1
858
429
0
0
1
858
429
0
0
2
858
429
0
0
2
858
429
0
0
3
858
429
0
0
3
858
429
0
0
3
858
429
0
0
3
858
429
0
0
3
858
429
0
0
3
858
429
0
0
3
858
429
0
0
3
858
429
0
0
4
858
429
0
0
4
858
429
0
0
5
858
429
0
0
5
858
429
0
0
6
858
429
0
0
7
858
429
0
0
8
858
429
0
0
11
858
429
0
0
15
858
429
0
0
21
858
429
0
0
29
858
429
0
0
41
858
429
0
0
57
858
429
0
0
78
858
429
0
0
102
858
429
0
0
128
858
429
0
0
154
858
429
0
0
176
858
429
0
0
191
858
429
0
0
195
858
429
0
0
195
858
429
0
0
206
858
429
0
0
262
858
429
0
0
403
858
429
0
0
655
858
429
0
0
1029
858
429
0
0
1493
858
429
0
0
1990
858
429
0
0
2430
858
429
0
0
2743
858
429
0
0
2897
858
429
0
0
2931
858
429
0
0
2932
858
429
0
0
2996
858
429
0
0
3173
858
429
0
0
3448
858
429
0
0
3767
858
429
0
0
4071
858
429
0
0
4320
858
429
0
0
4501
858
429
0
0
4625
858
429
0
0
4703
858
429
0
0
4743
858
429
0
0
4754
858
429
0
0
4743
899
449
1
0
4721
899
449
0
0
4695
899
449
0
0
4674
899
449
0
0
4665
899
449
0
0
4671
899
449
0
0
4685
899
449
0
0
4691
899
449
0
0
4653
899
449
0
0
4527
899
449
0
0
4285
899
449
0
0
3918
899
449
0
0
3458
899
449
0
0
2964
899
449
0
0
2525
899
449
0
0
2212
899
449
0
0
2058
899
449
0
0
2024
899
449
0
0
2022
899
449
0
0
1958
899
449
0
0
1780
899
449
0
0
1504
899
449
0
0
1184
899
449
0
0
877
899
449
0
0
625
899
449
0
0
437
899
449
0
0
305
899
449
0
0
215
899
449
0
0
159
899
449
0
0
127
899
449
0
0
114
899
449
0
0
110
899
449
0
0
110
899
449
0
0
109
899
449
0
0
103
899
449
0
0
93
899
449
0
0
78
899
449
0
0
60
899
449
0
0
43
899
449
0
0
28
899
449
0
0
17
899
449
0
0
10
899
449
0
0
6
899
449
0
0
3
899
449
0
0
2
899
449
0
0
2
899
449
0
0
1
899
449
0
0
1
899
449
0
0
1
899
449
0
0
1
899
449
0
0
1
899
449
0
0
2
899
449
0
0
2
899
449
0
0
2
899
449
0
0
3
899
449
0
0
3
899
449
0
0
3
899
449
0
0
3
899
449
0
0
3
899
449
0
0
3
899
449
0
0
3
899
449
0
0
3
899
449
0
0
4
899
449
0
0
4
899
449
0
0
5
899
449
0
0
5
899
449
0
0
5
899
449
0
0
5
899
449
0
0
5
899
449
0
0
5
899
449
0
0
5
899
449
0
0
5
899
449
0
0
5
899
449
0
0
5
899
449
0
0
5
899
449
0
0
5
899
449
0
0
5
899
449
0
0
5
899
449
0
0
5
899
449
0
0
5
899
449
0
0
5
899
449
0
0
4
899
449
0
0
4
899
449
0
0
4
899
449
0
0
3
899
449
0
0
3
899
449
0
0
3
899
449
0
0
2
899
449
0
0
2
899
449
0
0
2
899
449
0
0
2
899
449
0
0
2
899
449
0
0
1
899
449
0
0
1
899
449
0
0
1
899
449
0
0
0
899
449
0
0
0
899
449
0
0
0
899
449
0
0
1
899
449
0
0
1
899
449
0
0
2
899
449
0
0
2
899
449
0
0
2
899
449
0
0
2
899
449
0
0
2
899
449
0
0
2
899
449
0
0
2
899
449
0
0
2
899
449
0
0
2
899
449
0
0
2
899
449
0
0
2
899
449
0
0
3
899
449
0
0
3
899
449
0
0
3
899
449
0
0
3
899
449
0
0
3
899
449
0
0
3
899
449
0
0
3
899
449
0
0
4
899
449
0
0
4
899
449
0
0
5
899
449
0
0
8
899
449
0
0
13
899
449
0
0
21
899
449
0
0
35
899
449
0
0
52
899
449
0
0
76
899
449
0
0
104
899
449
0
0
134
899
449
0
0
163
899
449
0
0
189
899
449
0
0
208
899
449
0
0
216
899
449
0
0
217
899
449
0
0
221
899
449
0
0
258
899
449
0
0
362
899
449
0
0
570
899
449
0
0
903
899
449
0
0
1352
899
449
0
0
1856
899
449
0
0
2336
899
449
0
0
2703
899
449
0
0
2906
899
449
0
0
2965
899
449
0
0
2965
899
449
0
0
3010
899
449
0
0
3173
899
449
0
0
3455
899
449
0
0
3801
899
449
0
0
4140
899
449
0
0
4413
899
449
0
0
4611
899
449
0
0
4731
899
449
0
0
4791
899
449
0
0
4810
899
449
0
0
4802
937
468
1
0
4780
937
468
0
0
4752
937
468
0
0
4722
937
468
0
0
4696
937
468
0
0
4679
937
468
0
0
4674
937
468
0
0
4680
937
468
0
0
4684
937
468
0
0
4658
937
468
0
0
4565
937
468
0
0
4365
937
468
0
0
4038
937
468
0
0
3595
937
468
0
0
3095
937
468
0
0
2618
937
468
0
0
2252
937
468
0
0
2049
937
468
0
0
1991
937
468
0
0
1991
937
468
0
0
1945
937
468
0
0
1782
937
468
0
0
1500
937
468
0
0
1153
937
468
0
0
813
937
468
0
0
537
937
468
0
0
334
937
468
0
0
206
937
468
0
0
133
937
468
0
0
96
937
468
0
0
80
937
468
0
0
74
937
468
0
0
72
937
468
0
0
72
937
468
0
0
72
937
468
0
0
70
937
468
0
0
66
937
468
0
0
60
937
468
0
0
51
937
468
0
0
40
937
468
0
0
30
937
468
0
0
21
937
468
0
0
15
937
468
0
0
9
937
468
0
0
5
937
468
0
0
3
937
468
0
0
2
937
468
0
0
1
937
468
0
0
1
937
468
0
0
1
937
468
0
0
1
937
468
0
0
1
937
468
0
0
2
937
468
0
0
2
937
468
0
0
2
937
468
0
0
3
937
468
0
0
3
937
468
0
0
3
937
468
0
0
3
937
468
0
0
3
937
468
0
0
3
937
468
0
0
3
937
468
0
0
3
937
468
0
0
3
937
468
0
0
3
937
468
0
0
3
937
468
0
0
3
937
468
0
0
3
937
468
0
0
3
937
468
0
0
3
937
468
0
0
4
937
468
0
0
4
937
468
0
0
3
937
468
0
0
3
937
468
0
0
3
937
468
0
0
3
937
468
0
0
3
937
468
0
0
3
937
468
0
0
3
937
468
0
0
3
937
468
0
0
2
937
468
0
0
2
937
468
0
0
2
937
468
0
0
2
937
468
0
0
1
937
468
0
0
1
937
468
0
0
1
937
468
0
0
1
937
468
0
0
1
937
468
0
0
1
937
468
0
0
1
937
468
0
0
1
937
468
0
0
1
937
468
0
0
1
937
468
0
0
1
937
468
0
0
1
937
468
0
0
1
937
468
0
0
1
937
468
0
0
1
937
468
0
0
1
937
468
0
0
1
937
468
0
0
1
937
468
0
0
1
937
468
0
0
2
937
468
0
0
2
937
468
0
0
3
937
468
0
0
3
937
468
0
0
3
937
468
0
0
3
937
468
0
0
3
937
468
0
0
3
937
468
0
0
3
937
468
0
0
3
937
468
0
0
4
937
468
0
0
4
937
468
0
0
5
937
468
0
0
6
937
468
0
0
7
937
468
0
0
7
937
468
0
0
8
937
468
0
0
9
937
468
0
0
11
937
468
0
0
13
937
468
0
0
17
937
468
0
0
23
937
468
0
0
34
937
468
0
0
48
937
468
0
0
69
937
468
0
0
93
937
468
0
0
121
937
468
0
0
149
937
468
0
0
173
937
468
0
0
190
937
468
0
0
198
937
468
0
0
197
955
477
0
0
204
955
477
0
0
250
955
477
0
0
373
955
477
0
0
603
955
477
0
0
956
955
477
0
0
1413
955
477
0
0
1917
955
477
0
0
2389
955
477
0
0
2749
955
477
0
0
2951
955
477
0
0
3015
955
477
0
0
3016
955
477
0
0
3049
955
477
0
0
3189
955
477
0
0
3446
955
477
0
0
3772
955
477
0
0
4104
955
477
0
0
4396
955
477
0
0
4622
955
477
0
0
4779
955
477
0
0
4876
955
477
0
0
4929
955
477
0
0
4944
955
477
0
0
4935
992
496
1
0
4910
992
496
0
0
4882
992
496
0
0
4859
992
496
0
0
4847
992
496
0
0
4848
992
496
0
0
4860
992
496
0
0
4866
992
496
0
0
4833
992
496
0
0
4719
992
496
0
0
4498
992
496
0
0
4150
992
496
0
0
3698
992
496
0
0
3196
992
496
0
0
2726
992
496
0
0
2366
992
496
0
0
2164
992
496
0
0
2100
992
496
0
0
2099
992
496
0
0
2064
992
496
0
0
1924
992
496
0
0
1665
992
496
0
0
1339
992
496
0
0
1005
992
496
0
0
711
992
496
0
0
481
992
496
0
0
318
992
496
0
0
210
992
496
0
0
143
992
496
0
0
107
992
496
0
0
92
992
496
0
0
89
992
496
0
0
89
992
496
0
0
87
992
496
0
0
82
992
496
0
0
73
992
496
0
0
61
992
496
0
0
48
992
496
0
0
36
992
496
0
0
25
992
496
0
0
17
992
496
0
0
11
992
496
0
0
8
992
496
0
0
5
992
496
0
0
4
992
496
0
0
3
992
496
0
0
2
992
496
0
0
2
992
496
0
0
2
992
496
0
0
3
992
496
0
0
3
992
496
0
0
3
992
496
0
0
4
992
496
0
0
4
992
496
0
0
4
992
496
0
0
4
992
496
0
0
4
992
496
0
0
3
992
496
0
0
3
992
496
0
0
3
992
496
0
0
3
992
496
0
0
3
992
496
0
0
3
992
496
0
0
3
992
496
0
0
3
992
496
0
0
4
992
496
0
0
4
992
496
0
0
3
992
496
0
0
3
992
496
0
0
3
992
496
0
0
3
992
496
0
0
3
992
496
0
0
3
992
496
0
0
3
992
496
0
0
3
992
496
0
0
3
992
496
0
0
2
992
496
0
0
2
992
496
0
0
2
992
496
0
0
2
992
496
0
0
2
992
496
0
0
1
992
496
0
0
1
992
496
0
0
1
992
496
0
0
1
992
496
0
0
1
992
496
0
0
1
992
496
0
0
1
992
496
0
0
1
992
496
0
0
1
992
496
0
0
1
992
496
0
0
1
992
496
0
0
1
992
496
0
0
0
992
496
0
0
0
992
496
0
0
0
992
496
0
0
0
992
496
0
0
0
992
496
0
0
0
992
496
0
0
0
992
496
0
0
1
992
496
0
0
1
992
496
0
0
1
992
496
0
0
1
992
496
0
0
2
992
496
0
0
2
992
496
0
0
3
992
496
0
0
3
992
496
0
0
3
992
496
0
0
3
992
496
0
0
3
992
496
0
0
3
992
496
0
0
3
992
496
0
0
3
992
496
0
0
4
992
496
0
0
4
992
496
0
0
5
992
496
0
0
5
992
496
0
0
6
992
496
0
0
7
992
496
0
0
9
992
496
0
0
11
992
496
0
0
16
992
496
0
0
24
992
496
0
0
36
992
496
0
0
53
992
496
0
0
76
992
496
0
0
104
992
496
0
0
133
992
496
0
0
163
992
496
0
0
191
992
496
0
0
212
992
496
0
0
221
992
496
0
0
222
992
496
0
0
225
992
496
0
0
259
992
496
0
0
363
992
496
0
0
576
992
496
0
0
909
992
496
0
0
1350
992
496
0
0
1846
992
496
0
0
2318
992
496
0
0
2692
992
496
0
0
2916
992
496
0
0
2996
992
496
0
0
2999
992
496
0
0
3023
992
496
0
0
3146
992
496
0
0
3386
992
496
0
0
3705
992
496
0
0
4037
992
496
0
0
4323
992
496
0
0
4537
992
496
0
0
4679
992
496
0
0
4757
992
496
0
0
4790
992
496
0
0
4792
992
496
0
0
4773
1020
510
1
0
4746
1020
510
0
0
4716
1020
510
0
0
4688
1020
510
0
0
4670
1020
510
0
0
4665
1020
510
0
0
4671
1020
510
0
0
4675
1020
510
0
0
4651
1020
510
0
0
4555
1020
510
0
0
4349
1020
510
0
0
4021
1020
510
0
0
3584
1020
510
0
0
3090
1020
510
0
0
2619
1020
510
0
0
2245
1020
510
0
0
2022
1020
510
0
0
1942
1020
510
0
0
1939
1020
510
0
0
1915
1020
510
0
0
1791
1020
510
0
0
1550
1020
510
0
0
1230
1020
510
0
0
897
1020
510
0
0
608
1020
510
0
0
390
1020
510
0
0
240
1020
510
0
0
150
1020
510
0
0
99
1020
510
0
0
75
1020
510
0
0
65
1020
510
0
0
63
1020
510
0
0
63
1020
510
0
0
62
1020
510
0
0
60
1020
510
0
0
55
1020
510
0
0
49
1020
510
0
0
40
1020
510
0
0
31
1020
510
0
0
22
1020
510
0
0
15
1020
510
0
0
9
1020
510
0
0
6
1020
510
0
0
4
1020
510
0
0
2
1020
510
0
0
1
1020
510
0
0
1
1020
510
0
0
1
1020
510
0
0
0
1020
510
0
0
0
1020
510
0
0
0
1020
510
0
0
0
1020
510
0
0
0
1020
510
0
0
0
1020
510
0
0
1
1020
510
0
0
1
1020
510
0
0
2
1020
510
0
0
2
1020
510
0
0
3
1020
510
0
0
4
1020
510
0
0
4
1020
510
0
0
4
1020
510
0
0
4
1020
510
0
0
4
1020
510
0
0
4
1020
510
0
0
4
1020
510
0
0
4
1020
510
0
0
5
1020
510
0
0
5
1020
510
0
0
5
1020
510
0
0
5
1020
510
0
0
5
1020
510
0
0
5
1020
510
0
0
5
1020
510
0
0
5
1020
510
0
0
5
1020
510
0
0
5
1020
510
0
0
5
1020
510
0
0
6
1020
510
0
0
6
1020
510
0
0
8
1020
510
0
0
11
1020
510
0
0
17
1020
510
0
0
26
1020
510
0
0
40
1020
510
0
0
59
1020
510
0
0
81
1020
510
0
0
106
1020
510
0
0
134
1020
510
0
0
159
1020
510
0
0
180
1020
510
0
0
192
1020
510
0
0
194
1020
510
0
0
195
1020
510
0
0
216
1020
510
0
0
290
1020
510
0
0
453
1020
510
0
0
728
1020
510
0
0
1117
1020
510
0
0
1589
1020
510
0
0
2069
1020
510
0
0
2479
1020
510
0
0
2755
1020
510
0
0
2875
1020
510
0
0
2893
1020
510
0
0
2901
1020
510
0
0
2991
1020
510
0
0
3205
1020
510
0
0
3512
1020
510
0
0
3851
1020
510
0
0
4157
1020
510
0
0
4389
1020
510
0
0
4537
1020
510
0
0
4618
1020
510
0
0
4651
1020
510
0
0
4654
1020
510
0
0
4640
1020
510
1
0
4616
1020
510
0
0
4589
1020
510
0
0
4563
1020
510
0
0
4542
1020
510
0
0
4532
1020
510
0
0
4532
1020
510
0
0
4537
1020
510
0
0
4523
1020
510
0
0
4457
1020
510
0
0
4300
1020
510
0
0
4029
1020
510
0
0
3643
1020
510
0
0
3173
1020
510
0
0
2695
1020
510
0
0
2285
1020
510
0
0
2009
1020
510
0
0
1890
1020
510
0
0
1872
1020
510
0
0
1864
1020
510
0
0
1773
1020
510
0
0
1560
1020
510
0
0
1253
1020
510
0
0
913
1020
510
0
0
606
1020
510
0
0
371
1020
510
0
0
218
1020
510
0
0
128
1020
510
0
0
80
1020
510
0
0
58
1020
510
0
0
49
1020
510
0
0
47
1020
510
0
0
47
1020
510
0
0
47
1020
510
0
0
46
1020
510
0
0
45
1020
510
0
0
42
1020
510
0
0
36
1020
510
0
0
30
1020
510
0
0
23
1020
510
0
0
17
1020
510
0
0
13
1020
510
0
0
10
1020
510
0
0
8
1020
510
0
0
7
1020
510
0
0
6
1020
510
0
0
6
1020
510
0
0
5
1020
510
0
0
5
1020
510
0
0
6
1020
510
0
0
6
1020
510
0
0
6
1020
510
0
0
6
1020
510
0
0
6
1020
510
0
0
6
1020
510
0
0
5
1020
510
0
0
5
1020
510
0
0
4
1020
510
0
0
4
1020
510
0
0
4
1020
510
0
0
4
1020
510
0
0
4
1020
510
0
0
4
1020
510
0
0
4
1020
510
0
0
4
1020
510
0
0
4
1020
510
0
0
4
1020
510
0
0
4
1020
510
0
0
4
1020
510
0
0
4
1020
510
0
0
3
1020
510
0
0
3
1020
510
0
0
3
1020
510
0
0
2
1020
510
0
0
2
1020
510
0
0
2
1020
510
0
0
2
1020
510
0
0
2
1020
510
0
0
2
1020
510
0
0
2
1020
510
0
0
1
1020
510
0
0
1
1020
510
0
0
1
1020
510
0
0
1
1020
510
0
0
1
1020
510
0
0
1
1020
510
0
0
1
1020
510
0
0
1
1020
510
0
0
1
1020
510
0
0
1
1020
510
0
0
1
1020
510
0
0
1
1020
510
0
0
1
1020
510
0
0
1
1020
510
0
0
1
1020
510
0
0
0
1020
510
0
0
0
1020
510
0
0
0
1020
510
0
0
0
1020
510
0
0
0
1020
510
0
0
0
1020
510
0
0
0
1020
510
0
0
0
1020
510
0
0
0
1020
510
0
0
0
1020
510
0
0
0
1020
510
0
0
0
1020
510
0
0
0
1020
510
0
0
0
1020
510
0
0
0
1020
510
0
0
0
1020
510
0
0
0
1020
510
0
0
0
1020
510
0
0
0
1020
510
0
0
0
1020
510
0
0
0
1020
510
0
0
0
1020
510
0
0
0
1020
510
0
0
0
1020
510
0
0
0
1020
510
0
0
0
1020
510
0
0
0
1020
510
0
0
0
1020
510
0
0
0
1020
510
0
0
0
1020
510
0
0
0
1020
510
0
0
0
1020
510
0
0
0
1020
510
0
0
0
1020
510
0
0
0
1020
510
0
0
0
1020
510
0
0
0
1020
510
0
0
0
1020
510
0
0
0
1020
510
0
0
0
1020
510
0
0
0
1020
510
0
0
1
1020
510
0
0
1
1020
510
0
0
1
1020
510
0
0
2
1020
510
0
0
3
1020
510
0
0
4
1020
510
0
0
6
1020
510
0
0
9
1020
510
0
0
13
1020
510
0
0
20
1020
510
0
0
29
1020
510
0
0
43
1020
510
0
0
60
1020
510
0
0
81
1020
510
0
0
102
1020
510
0
0
123
1020
510
0
0
139
1020
510
0
0
148
1020
510
0
0
151
1020
510
0
0
151
1020
510
0
0
166
1020
510
0
0
222
1020
510
0
0
354
1020
510
0
0
589
1020
510
0
0
929
1020
510
0
0
1347
1020
510
0
0
1788
1020
510
0
0
2177
1020
510
0
0
2447
1020
510
0
0
2579
1020
510
0
0
2603
1020
510
0
0
2607
1020
510
0
0
2683
1020
510
0
0
2885
1020
510
0
0
3198
1020
510
0
0
3557
1020
510
0
0
3881
1020
510
0
0
4131
1020
510
0
0
4295
1020
510
0
0
4382
1020
510
0
0
4416
1020
510
0
0
4420
1020
510
0
0
4407
1033
516
1
0
4387
1033
516
0
0
4366
1033
516
0
0
4346
1033
516
0
0
4330
1033
516
0
0
4321
1033
516
0
0
4321
1033
516
0
0
4323
1033
516
0
0
4313
1033
516
0
0
4264
1033
516
0
0
4138
1033
516
0
0
3909
1033
516
0
0
3573
1033
516
0
0
3158
1033
516
0
0
2719
1033
516
0
0
2332
1033
516
0
0
2063
1033
516
0
0
1932
1033
516
0
0
1908
1033
516
0
0
1904
1033
516
0
0
1827
1033
516
0
0
1625
1033
516
0
0
1311
1033
516
0
0
951
1033
516
0
0
624
1033
516
0
0
372
1033
516
0
0
204
1033
516
0
0
110
1033
516
0
0
67
1033
516
0
0
49
1033
516
0
0
44
1033
516
0
0
44
1033
516
0
0
44
1033
516
0
0
43
1033
516
0
0
43
1033
516
0
0
42
1033
516
0
0
41
1033
516
0
0
37
1033
516
0
0
33
1033
516
0
0
26
1033
516
0
0
19
1033
516
0
0
14
1033
516
0
0
10
1033
516
0
0
7
1033
516
0
0
4
1033
516
0
0
3
1033
516
0
0
2
1033
516
0
0
1
1033
516
0
0
0
1033
516
0
0
0
1033
516
0
0
0
1033
516
0
0
0
1033
516
0
0
0
1033
516
0
0
0
1033
516
0
0
0
1033
516
0
0
0
1033
516
0
0
1
1033
516
0
0
1
1033
516
0
0
1
1033
516
0
0
1
1033
516
0
0
1
1033
516
0
0
1
1033
516
0
0
1
1033
516
0
0
1
1033
516
0
0
1
1033
516
0
0
1
1033
516
0
0
1
1033
516
0
0
1
1033
516
0
0
1
1033
516
0
0
1
1033
516
0
0
1
1033
516
0
0
1
1033
516
0
0
1
1033
516
0
0
1
1033
516
0
0
1
1033
516
0
0
1
1033
516
0
0
1
1033
516
0
0
1
1033
516
0
0
1
1033
516
0
0
1
1033
516
0
0
1
1033
516
0
0
1
1033
516
0
0
1
1033
516
0
0
1
1033
516
0
0
1
1033
516
0
0
0
1033
516
0
0
0
1033
516
0
0
0
1033
516
0
0
0
1033
516
0
0
0
1033
516
0
0
0
1033
516
0
0
0
1033
516
0
0
0
1033
516
0
0
0
1033
516
0
0
0
1033
516
0
0
0
1033
516
0
0
0
1033
516
0
0
0
1033
516
0
0
0
1033
516
0
0
0
1033
516
0
0
0
1033
516
0
0
0
1033
516
0
0
0
1033
516
0
0
0
1033
516
0
0
0
1033
516
0
0
0
1033
516
0
0
0
1033
516
0
0
0
1033
516
0
0
0
1033
516
0
0
0
1033
516
0
0
0
1033
516
0
0
0
1033
516
0
0
0
1033
516
0
0
0
1033
516
0
0
0
1033
516
0
0
0
1033
516
0
0
0
1033
516
0
0
0
1033
516
0
0
1
1033
516
0
0
1
1033
516
0
0
1
1033
516
0
0
1
1033
516
0
0
1
1033
516
0
0
2
1033
516
0
0
3
1033
516
0
0
4
1033
516
0
0
6
1033
516
0
0
11
1033
516
0
0
19
1033
516
0
0
31
1033
516
0
0
47
1033
516
0
0
66
1033
516
0
0
88
1033
516
0
0
112
1033
516
0
0
135
1033
516
0
0
152
1033
516
0
0
162
1033
516
0
0
164
1033
516
0
0
165
1033
516
0
0
184
1033
516
0
0
249
1033
516
0
0
390
1033
516
0
0
630
1033
516
0
0
970
1033
516
0
0
1381
1033
516
0
0
1807
1033
516
0
0
2174
1033
516
0
0
2415
1033
516
0
0
2519
1033
516
0
0
2531
1033
516
0
0
2543
1033
516
0
0
2644
1033
516
0
0
2868
1033
516
0
0
3181
1033
516
0
0
3513
1033
516
0
0
3800
1033
516
0
0
4006
1033
516
0
0
4129
1033
516
0
0
4189
1033
516
0
0
4209
1033
516
0
0
4205
1037
518
1
0
4190
1037
518
0
0
4168
1037
518
0
0
4143
1037
518
0
0
4121
1037
518
0
0
4104
1037
518
0
0
4095
1037
518
0
0
4095
1037
518
0
0
4096
1037
518
0
0
4081
1037
518
0
0
4021
1037
518
0
0
3886
1037
518
0
0
3650
1037
518
0
0
3313
1037
518
0
0
2905
1037
518
0
0
2482
1037
518
0
0
2116
1037
518
0
0
1876
1037
518
0
0
1772
1037
518
0
0
1761
1037
518
0
0
1749
1037
518
0
0
1648
1037
518
0
0
1424
1037
518
0
0
1110
1037
518
0
0
777
1037
518
0
0
489
1037
518
0
0
281
1037
518
0
0
153
1037
518
0
0
85
1037
518
0
0
53
1037
518
0
0
41
1037
518
0
0
37
1037
518
0
0
37
1037
518
0
0
37
1037
518
0
0
37
1037
518
0
0
37
1037
518
0
0
36
1037
518
0
0
34
1037
518
0
0
32
1037
518
0
0
28
1037
518
0
0
23
1037
518
0
0
17
1037
518
0
0
12
1037
518
0
0
9
1037
518
0
0
6
1037
518
0
0
4
1037
518
0
0
3
1037
518
0
0
2
1037
518
0
0
1
1037
518
0
0
1
1037
518
0
0
1
1037
518
0
0
1
1037
518
0
0
1
1037
518
0
0
1
1037
518
0
0
1
1037
518
0
0
1
1037
518
0
0
1
1037
518
0
0
1
1037
518
0
0
1
1037
518
0
0
1
1037
518
0
0
1
1037
518
0
0
1
1037
518
0
0
1
1037
518
0
0
1
1037
518
0
0
1
1037
518
0
0
1
1037
518
0
0
1
1037
518
0
0
1
1037
518
0
0
1
1037
518
0
0
1
1037
518
0
0
1
1037
518
0
0
1
1037
518
0
0
1
1037
518
0
0
1
1037
518
0
0
1
1037
518
0
0
1
1037
518
0
0
1
1037
518
0
0
1
1037
518
0
0
1
1037
518
0
0
1
1037
518
0
0
1
1037
518
0
0
1
1037
518
0
0
1
1037
518
0
0
1
1037
518
0
0
1
1037
518
0
0
0
1037
518
0
0
0
1037
518
0
0
0
1037
518
0
0
0
1037
518
0
0
0
1037
518
0
0
0
1037
518
0
0
0
1037
518
0
0
0
1037
518
0
0
0
1037
518
0
0
0
1037
518
0
0
0
1037
518
0
0
0
1037
518
0
0
0
1037
518
0
0
0
1037
518
0
0
0
1037
518
0
0
0
1037
518
0
0
0
1037
518
0
0
0
1037
518
0
0
0
1037
518
0
0
0
1037
518
0
0
0
1037
518
0
0
0
1037
518
0
0
0
1037
518
0
0
0
1037
518
0
0
1
1037
518
0
0
1
1037
518
0
0
1
1037
518
0
0
1
1037
518
0
0
1
1037
518
0
0
1
1037
518
0
0
1
1037
518
0
0
1
1037
518
0
0
2
1037
518
0
0
2
1037
518
0
0
3
1037
518
0
0
4
1037
518
0
0
5
1037
518
0
0
6
1037
518
0
0
8
1037
518
0
0
10
1037
518
0
0
14
1037
518
0
0
19
1037
518
0
0
27
1037
518
0
0
35
1037
518
0
0
45
1037
518
0
0
55
1037
518
0
0
64
1037
518
0
0
72
1037
518
0
0
76
1037
518
0
0
78
1037
518
0
0
78
1037
518
0
0
82
1037
518
0
0
104
1037
518
0
0
169
1037
518
0
0
301
1037
518
0
0
519
1037
518
0
0
820
1037
518
0
0
1167
1037
518
0
0
1507
1037
518
0
0
1765
1037
518
0
0
1906
1037
518
0
0
1940
1037
518
0
0
1941
1037
518
0
0
2031
1037
518
0
0
2325
1037
518
0
0
2861
1037
518
0
0
3561
1037
518
0
0
4241
1037
518
0
0
4744
1037
518
0
0
5017
1037
518
0
0
5108
1037
518
0
0
5113
1037
518
0
0
5108
1069
534
1
0
5126
1069
534
0
0
5162
1069
534
0
0
5200
1069
534
0
0
5234
1069
534
0
0
5263
1069
534
0
0
5288
1069
534
0
0
5312
1069
534
0
0
5331
1069
534
0
0
5341
1069
534
0
0
5326
1069
534
0
0
5265
1069
534
0
0
5133
1069
534
0
0
4915
1069
534
0
0
4614
1069
534
0
0
4267
1069
534
0
0
3927
1069
534
0
0
3669
1069
534
0
0
3528
1069
534
0
0
3494
1069
534
0
0
3492
1069
534
0
0
3402
1069
534
0
0
3107
1069
534
0
0
2570
1069
534
0
0
1869
1069
534
0
0
1187
1069
534
0
0
683
1069
534
0
0
407
1069
534
0
0
313
1069
534
0
0
303
1069
534
0
0
300
1069
534
0
0
274
1069
534
0
0
228
1069
534
0
0
180
1069
534
0
0
137
1069
534
0
0
100
1069
534
0
0
70
1069
534
0
0
44
1069
534
0
0
25
1069
534
0
0
12
1069
534
0
0
4
1069
534
0
0
1
1069
534
0
0
0
1069
534
0
0
0
1069
534
0
0
0
1069
534
0
0
0
1069
534
0
0
0
1069
534
0
0
0
1069
534
0
0
0
1069
534
0
0
0
1069
534
0
0
0
1069
534
0
0
0
1069
534
0
0
0
1069
534
0
0
0
1069
534
0
0
0
1069
534
0
0
0
1069
534
0
0
0
1069
534
0
0
0
1069
534
0
0
0
1069
534
0
0
0
1069
534
0
0
0
1069
534
0
0
0
1069
534
0
0
0
1069
534
0
0
0
1069
534
0
0
0
1069
534
0
0
0
1069
534
0
0
0
1069
534
0
0
0
1069
534
0
0
0
1069
534
0
0
0
1069
534
0
0
0
1069
534
0
0
0
1069
534
0
0
0
1069
534
0
0
0
1069
534
0
0
0
1069
534
0
0
0
1069
534
0
0
0
1069
534
0
0
0
1069
534
0
0
0
1069
534
0
0
0
1069
534
0
0
0
1069
534
0
0
0
1069
534
0
0
0
1069
534
0
0
0
1069
534
0
0
0
1069
534
0
0
0
1069
534
0
0
0
1069
534
0
0
0
1069
534
0
0
0
1069
534
0
0
0
1069
534
0
0
0
1069
534
0
0
0
1069
534
0
0
0
1069
534
0
0
0
1069
534
0
0
0
1069
534
0
0
0
1069
534
0
0
0
1069
534
0
0
0
1069
534
0
0
0
1069
534
0
0
0
1069
534
0
0
0
1069
534
0
0
0
1069
534
0
0
0
1069
534
0
0
0
1069
534
0
0
0
1069
534
0
0
0
1069
534
0
0
0
1069
534
0
0
0
1069
534
0
0
0
1069
534
0
0
0
1069
534
0
0
0
1069
534
0
0
0
1069
534
0
0
1
1069
534
0
0
1
1069
534
0
0
1
1069
534
0
0
1
1069
534
0
0
1
1069
534
0
0
1
1069
534
0
0
1
1069
534
0
0
1
1069
534
0
0
1
1069
534
0
0
2
1069
534
0
0
2
1069
534
0
0
2
1069
534
0
0
3
1069
534
0
0
4
1069
534
0
0
5
1069
534
0
0
8
1069
534
0
0
12
1069
534
0
0
19
1069
534
0
0
30
1069
534
0
0
44
1069
534
0
0
63
1069
534
0
0
88
1069
534
0
0
114
1069
534
0
0
140
1069
534
0
0
162
1069
534
0
0
178
1069
534
0
0
185
1069
534
0
0
185
1069
534
0
0
192
1069
534
0
0
233
1069
534
0
0
341
1069
534
0
0
549
1069
534
0
0
869
1069
534
0
0
1279
1069
534
0
0
1728
1069
534
0
0
2146
1069
534
0
0
2460
1069
534
0
0
2632
1069
534
0
0
2683
1069
534
0
0
2682
1022
511
1
0
2723
1022
511
0
0
2872
1022
511
0
0
3130
1022
511
0
0
3456
1022
511
0
0
3774
1022
511
0
0
4041
1022
511
0
0
4235
1022
511
0
0
4357
1022
511
0
0
4419
1022
511
0
0
4446
1022
511
0
0
4446
1022
511
0
0
4429
1022
511
0
0
4405
1022
511
0
0
4379
1022
511
0
0
4357
1022
511
0
0
4343
1022
511
0
0
4342
1022
511
0
0
4350
1022
511
0
0
4352
1022
511
0
0
4321
1022
511
0
0
4222
1022
511
0
0
4021
1022
511
0
0
3707
1022
511
0
0
3300
1022
511
0
0
2854
1022
511
0
0
2438
1022
511
0
0
2125
1022
511
0
0
1953
1022
511
0
0
1903
1022
511
0
0
1903
1022
511
0
0
1862
1022
511
0
0
1712
1022
511
0
0
1454
1022
511
0
0
1127
1022
511
0
0
807
1022
511
0
0
537
1022
511
0
0
340
1022
511
0
0
212
1022
511
0
0
138
1022
511
0
0
97
1022
511
0
0
78
1022
511
0
0
71
1022
511
0
0
68
1022
511
0
0
68
1022
511
0
0
68
1022
511
0
0
65
1022
511
0
0
60
1022
511
0
0
52
1022
511
0
0
43
1022
511
0
0
33
1022
511
0
0
24
1022
511
0
0
16
1022
511
0
0
11
1022
511
0
0
7
1022
511
0
0
4
1022
511
0
0
2
1022
511
0
0
1
1022
511
0
0
1
1022
511
0
0
1
1022
511
0
0
1
1022
511
0
0
1
1022
511
0
0
1
1022
511
0
0
1
1022
511
0
0
1
1022
511
0
0
1
1022
511
0
0
1
1022
511
0
0
1
1022
511
0
0
1
1022
511
0
0
1
1022
511
0
0
1
1022
511
0
0
1
1022
511
0
0
1
1022
511
0
0
1
1022
511
0
0
2
1022
511
0
0
2
1022
511
0
0
2
1022
511
0
0
2
1022
511
0
0
2
1022
511
0
0
2
1022
511
0
0
2
1022
511
0
0
2
1022
511
0
0
2
1022
511
0
0
2
1022
511
0
0
2
1022
511
0
0
2
1022
511
0
0
2
1022
511
0
0
2
1022
511
0
0
2
1022
511
0
0
2
1022
511
0
0
2
1022
511
0
0
2
1022
511
0
0
2
1022
511
0
0
2
1022
511
0
0
2
1022
511
0
0
2
1022
511
0
0
2
1022
511
0
0
1
1022
511
0
0
1
1022
511
0
0
1
1022
511
0
0
1
1022
511
0
0
1
1022
511
0
0
1
1022
511
0
0
1
1022
511
0
0
1
1022
511
0
0
1
1022
511
0
0
0
1022
511
0
0
0
1022
511
0
0
0
1022
511
0
0
0
1022
511
0
0
0
1022
511
0
0
0
1022
511
0
0
1
1022
511
0
0
1
1022
511
0
0
1
1022
511
0
0
1
1022
511
0
0
1
1022
511
0
0
1
1022
511
0
0
2
1022
511
0
0
2
1022
511
0
0
2
1022
511
0
0
2
1022
511
0
0
2
1022
511
0
0
2
1022
511
0
0
2
1022
511
0
0
2
1022
511
0
0
3
1022
511
0
0
3
1022
511
0
0
4
1022
511
0
0
4
1022
511
0
0
5
1022
511
0
0
6
1022
511
0
0
8
1022
511
0
0
11
1022
511
0
0
16
1022
511
0
0
22
1022
511
0
0
32
1022
511
0
0
44
1022
511
0
0
60
1022
511
0
0
79
1022
511
0
0
101
1022
511
0
0
124
1022
511
0
0
144
1022
511
0
0
160
1022
511
0
0
168
1022
511
0
0
169
1022
511
0
0
172
1022
511
0
0
196
1022
511
0
0
275
1022
511
0
0
439
1022
511
0
0
708
1022
511
0
0
1083
1022
511
0
0
1531
1022
511
0
0
1988
1022
511
0
0
2369
1022
511
0
0
2621
1022
511
0
0
2729
1022
511
0
0
2741
1022
511
0
0
2752
1022
511
0
0
2852
1022
511
0
0
3076
1022
511
0
0
3395
1022
511
0
0
3740
1022
511
0
0
4038
1022
511
0
0
4257
1022
511
0
0
4392
1022
511
0
0
4462
1022
511
0
0
4491
1022
511
0
0
4494
1022
511
0
0
4483
1036
518
1
0
4463
1036
518
0
0
4442
1036
518
0
0
4421
1036
518
0
0
4405
1036
518
0
0
4397
1036
518
0
0
4398
1036
518
0
0
4398
1036
518
0
0
4379
1036
518
0
0
4305
1036
518
0
0
4149
1036
518
0
0
3886
1036
518
0
0
3517
1036
518
0
0
3073
1036
518
0
0
2620
1036
518
0
0
2241
1036
518
0
0
1990
1036
518
0
0
1882
1036
518
0
0
1871
1036
518
0
0
1859
1036
518
0
0
1758
1036
518
0
0
1534
1036
518
0
0
1214
1036
518
0
0
867
1036
518
0
0
566
1036
518
0
0
342
1036
518
0
0
201
1036
518
0
0
121
1036
518
0
0
81
1036
518
0
0
62
1036
518
0
0
53
1036
518
0
0
51
1036
518
0
0
50
1036
518
0
0
50
1036
518
0
0
50
1036
518
0
0
49
1036
518
0
0
48
1036
518
0
0
45
1036
518
0
0
40
1036
518
0
0
33
1036
518
0
0
26
1036
518
0
0
19
1036
518
0
0
14
1036
518
0
0
9
1036
518
0
0
6
1036
518
0
0
4
1036
518
0
0
2
1036
518
0
0
2
1036
518
0
0
1
1036
518
0
0
1
1036
518
0
0
1
1036
518
0
0
1
1036
518
0
0
2
1036
518
0
0
2
1036
518
0
0
2
1036
518
0
0
2
1036
518
0
0
2
1036
518
0
0
2
1036
518
0
0
2
1036
518
0
0
2
1036
518
0
0
2
1036
518
0
0
2
1036
518
0
0
2
1036
518
0
0
2
1036
518
0
0
2
1036
518
0
0
2
1036
518
0
0
2
1036
518
0
0
2
1036
518
0
0
2
1036
518
0
0
2
1036
518
0
0
2
1036
518
0
0
2
1036
518
0
0
2
1036
518
0
0
2
1036
518
0
0
2
1036
518
0
0
2
1036
518
0
0
2
1036
518
0
0
2
1036
518
0
0
2
1036
518
0
0
2
1036
518
0
0
2
1036
518
0
0
2
1036
518
0
0
2
1036
518
0
0
1
1036
518
0
0
1
1036
518
0
0
1
1036
518
0
0
1
1036
518
0
0
0
1036
518
0
0
0
1036
518
0
0
1
1036
518
0
0
1
1036
518
0
0
1
1036
518
0
0
0
1036
518
0
0
0
1036
518
0
0
0
1036
518
0
0
0
1036
518
0
0
0
1036
518
0
0
0
1036
518
0
0
0
1036
518
0
0
0
1036
518
0
0
0
1036
518
0
0
1
1036
518
0
0
1
1036
518
0
0
2
1036
518
0
0
2
1036
518
0
0
3
1036
518
0
0
3
1036
518
0
0
4
1036
518
0
0
4
1036
518
0
0
4
1036
518
0
0
4
1036
518
0
0
4
1036
518
0
0
4
1036
518
0
0
4
1036
518
0
0
4
1036
518
0
0
5
1036
518
0
0
5
1036
518
0
0
6
1036
518
0
0
6
1036
518
0
0
7
1036
518
0
0
8
1036
518
0
0
10
1036
518
0
0
14
1036
518
0
0
19
1036
518
0
0
29
1036
518
0
0
42
1036
518
0
0
60
1036
518
0
0
82
1036
518
0
0
108
1036
518
0
0
136
1036
518
0
0
164
1036
518
0
0
188
1036
518
0
0
205
1036
518
0
0
211
1036
518
0
0
211
1036
518
0
0
219
1036
518
0
0
264
1036
518
0
0
387
1036
518
0
0
617
1036
518
0
0
964
1036
518
0
0
1412
1036
518
0
0
1892
1036
518
0
0
2333
1036
518
0
0
2653
1036
518
0
0
2826
1036
518
0
0
2873
1036
518
0
0
2873
1036
518
0
0
2913
1036
518
0
0
3058
1036
518
0
0
3309
1036
518
0
0
3615
1036
518
0
0
3920
1036
518
0
0
4175
1036
518
0
0
4367
1036
518
0
0
4494
1036
518
0
0
4571
1036
518
0
0
4606
1036
518
0
0
4614
1036
518
0
0
4602
1053
526
1
0
4579
1053
526
0
0
4551
1053
526
0
0
4528
1053
526
0
0
4513
1053
526
0
0
4514
1053
526
0
0
4525
1053
526
0
0
4529
1053
526
0
0
4495
1053
526
0
0
4382
1053
526
0
0
4161
1053
526
0
0
3819
1053
526
0
0
3375
1053
526
0
0
2898
1053
526
0
0
2458
1053
526
0
0
2139
1053
526
0
0
1967
1053
526
0
0
1919
1053
526
0
0
1919
1053
526
0
0
1878
1053
526
0
0
1733
1053
526
0
0
1480
1053
526
0
0
1173
1053
526
0
0
866
1053
526
0
0
608
1053
526
0
0
410
1053
526
0
0
274
1053
526
0
0
184
1053
526
0
0
130
1053
526
0
0
100
1053
526
0
0
86
1053
526
0
0
81
1053
526
0
0
81
1053
526
0
0
80
1053
526
0
0
77
1053
526
0
0
69
1053
526
0
0
58
1053
526
0
0
46
1053
526
0
0
34
1053
526
0
0
24
1053
526
0
0
15
1053
526
0
0
10
1053
526
0
0
6
1053
526
0
0
3
1053
526
0
0
1
1053
526
0
0
0
1053
526
0
0
0
1053
526
0
0
0
1053
526
0
0
0
1053
526
0
0
1
1053
526
0
0
1
1053
526
0
0
1
1053
526
0
0
2
1053
526
0
0
2
1053
526
0
0
3
1053
526
0
0
3
1053
526
0
0
4
1053
526
0
0
4
1053
526
0
0
4
1053
526
0
0
4
1053
526
0
0
4
1053
526
0
0
4
1053
526
0
0
4
1053
526
0
0
4
1053
526
0
0
4
1053
526
0
0
4
1053
526
0
0
4
1053
526
0
0
5
1053
526
0
0
5
1053
526
0
0
5
1053
526
0
0
5
1053
526
0
0
5
1053
526
0
0
5
1053
526
0
0
5
1053
526
0
0
5
1053
526
0
0
5
1053
526
0
0
5
1053
526
0
0
5
1053
526
0
0
4
1053
526
0
0
4
1053
526
0
0
4
1053
526
0
0
3
1053
526
0
0
3
1053
526
0
0
2
1053
526
0
0
2
1053
526
0
0
1
1053
526
0
0
1
1053
526
0
0
1
1053
526
0
0
1
1053
526
0
0
1
1053
526
0
0
1
1053
526
0
0
1
1053
526
0
0
1
1053
526
0
0
1
1053
526
0
0
1
1053
526
0
0
0
1053
526
0
0
0
1053
526
0
0
0
1053
526
0
0
0
1053
526
0
0
0
1053
526
0
0
0
1053
526
0
0
0
1053
526
0
0
0
1053
526
0
0
0
1053
526
0
0
0
1053
526
0
0
0
1053
526
0
0
1
1053
526
0
0
1
1053
526
0
0
1
1053
526
0
0
1
1053
526
0
0
2
1053
526
0
0
2
1053
526
0
0
2
1053
526
0
0
2
1053
526
0
0
2
1053
526
0
0
2
1053
526
0
0
2
1053
526
0
0
2
1053
526
0
0
3
1053
526
0
0
3
1053
526
0
0
4
1053
526
0
0
5
1053
526
0
0
7
1053
526
0
0
10
1053
526
0
0
14
1053
526
0
0
20
1053
526
0
0
31
1053
526
0
0
46
1053
526
0
0
66
1053
526
0
0
92
1053
526
0
0
122
1053
526
0
0
152
1053
526
0
0
180
1053
526
0
0
203
1053
526
0
0
217
1053
526
0
0
220
1053
526
0
0
221
1053
526
0
0
240
1053
526
0
0
316
1053
526
0
0
494
1053
526
0
0
801
1053
526
0
0
1234
1053
526
0
0
1755
1053
526
0
0
2292
1053
526
0
0
2749
1053
526
0
0
3056
1053
526
0
0
3192
1053
526
0
0
3212
1053
526
0
0
3220
1053
526
0
0
3317
1053
526
0
0
3552
1053
526
0
0
3897
1053
526
0
0
4277
1053
526
0
0
4628
1053
526
0
0
4900
1053
526
0
0
5081
1053
526
0
0
5186
1053
526
0
0
5236
1053
526
0
0
5249
1053
526
0
0
5238
1088
544
1
0
5213
1088
544
0
0
5183
1088
544
0
0
5155
1088
544
0
0
5134
1088
544
0
0
5124
1088
544
0
0
5127
1088
544
0
0
5135
1088
544
0
0
5125
1088
544
0
0
5059
1088
544
0
0
4891
1088
544
0
0
4592
1088
544
0
0
4164
1088
544
0
0
3647
1088
544
0
0
3111
1088
544
0
0
2656
1088
544
0
0
2350
1088
544
0
0
2214
1088
544
0
0
2194
1088
544
0
0
2185
1088
544
0
0
2088
1088
544
0
0
1853
1088
544
0
0
1506
1088
544
0
0
1124
1088
544
0
0
771
1088
544
0
0
495
1088
544
0
0
307
1088
544
0
0
191
1088
544
0
0
127
1088
544
0
0
93
1088
544
0
0
78
1088
544
0
0
73
1088
544
0
0
73
1088
544
0
0
73
1088
544
0
0
71
1088
544
0
0
67
1088
544
0
0
60
1088
544
0
0
52
1088
544
0
0
42
1088
544
0
0
32
1088
544
0
0
22
1088
544
0
0
14
1088
544
0
0
9
1088
544
0
0
5
1088
544
0
0
3
1088
544
0
0
2
1088
544
0
0
1
1088
544
0
0
0
1088
544
0
0
0
1088
544
0
0
0
1088
544
0
0
0
1088
544
0
0
1
1088
544
0
0
1
1088
544
0
0
1
1088
544
0
0
1
1088
544
0
0
1
1088
544
0
0
1
1088
544
0
0
1
1088
544
0
0
1
1088
544
0
0
1
1088
544
0
0
1
1088
544
0
0
1
1088
544
0
0
1
1088
544
0
0
1
1088
544
0
0
1
1088
544
0
0
2
1088
544
0
0
2
1088
544
0
0
2
1088
544
0
0
2
1088
544
0
0
2
1088
544
0
0
2
1088
544
0
0
2
1088
544
0
0
2
1088
544
0
0
2
1088
544
0
0
2
1088
544
0
0
2
1088
544
0
0
2
1088
544
0
0
2
1088
544
0
0
2
1088
544
0
0
2
1088
544
0
0
2
1088
544
0
0
2
1088
544
0
0
1
1088
544
0
0
1
1088
544
0
0
1
1088
544
0
0
1
1088
544
0
0
1
1088
544
0
0
1
1088
544
0
0
1
1088
544
0
0
1
1088
544
0
0
0
1088
544
0
0
0
1088
544
0
0
0
1088
544
0
0
0
1088
544
0
0
0
1088
544
0
0
0
1088
544
0
0
0
1088
544
0
0
0
1088
544
0
0
0
1088
544
0
0
0
1088
544
0
0
0
1088
544
0
0
0
1088
544
0
0
0
1088
544
0
0
0
1088
544
0
0
0
1088
544
0
0
0
1088
544
0
0
0
1088
544
0
0
0
1088
544
0
0
0
1088
544
0
0
1
1088
544
0
0
1
1088
544
0
0
1
1088
544
0
0
1
1088
544
0
0
1
1088
544
0
0
1
1088
544
0
0
1
1088
544
0
0
1
1088
544
0
0
2
1088
544
0
0
3
1088
544
0
0
4
1088
544
0
0
5
1088
544
0
0
6
1088
544
0
0
8
1088
544
0
0
10
1088
544
0
0
14
1088
544
0
0
21
1088
544
0
0
30
1088
544
0
0
44
1088
544
0
0
61
1088
544
0
0
84
1088
544
0
0
108
1088
544
0
0
134
1088
544
0
0
159
1088
544
0
0
178
1088
544
0
0
187
1088
544
0
0
188
1088
544
0
0
191
1088
544
0
0
219
1088
544
0
0
309
1088
544
0
0
496
1088
544
0
0
803
1088
544
0
0
1221
1088
544
0
0
1709
1088
544
0
0
2189
1088
544
0
0
2578
1088
544
0
0
2824
1088
544
0
0
2921
1088
544
0
0
2928
1088
544
0
0
2947
1088
544
0
0
3070
1088
544
0
0
3333
1088
544
0
0
3692
1088
544
0
0
4065
1088
544
0
0
4389
1088
544
0
0
4626
1088
544
0
0
4769
1088
544
0
0
4839
1088
544
0
0
4862
1088
544
0
0
4859
1106
553
1
0
4841
1106
553
0
0
4817
1106
553
0
0
4791
1106
553
0
0
4767
1106
553
0
0
4748
1106
553
0
0
4741
1106
553
0
0
4744
1106
553
0
0
4746
1106
553
0
0
4724
1106
553
0
0
4641
1106
553
0
0
4460
1106
553
0
0
4157
1106
553
0
0
3743
1106
553
0
0
3257
1106
553
0
0
2779
1106
553
0
0
2392
1106
553
0
0
2146
1106
553
0
0
2049
1106
553
0
0
2042
1106
553
0
0
2023
1106
553
0
0
1899
1106
553
0
0
1635
1106
553
0
0
1275
1106
553
0
0
900
1106
553
0
0
573
1106
553
0
0
333
1106
553
0
0
183
1106
553
0
0
103
1106
553
0
0
67
1106
553
0
0
52
1106
553
0
0
48
1106
553
0
0
47
1106
553
0
0
47
1106
553
0
0
47
1106
553
0
0
46
1106
553
0
0
44
1106
553
0
0
40
1106
553
0
0
35
1106
553
0
0
29
1106
553
0
0
22
1106
553
0
0
16
1106
553
0
0
11
1106
553
0
0
8
1106
553
0
0
5
1106
553
0
0
3
1106
553
0
0
2
1106
553
0
0
1
1106
553
0
0
0
1106
553
0
0
0
1106
553
0
0
0
1106
553
0
0
0
1106
553
0
0
0
1106
553
0
0
0
1106
553
0
0
0
1106
553
0
0
0
1106
553
0
0
0
1106
553
0
0
1
1106
553
0
0
1
1106
553
0
0
1
1106
553
0
0
1
1106
553
0
0
1
1106
553
0
0
1
1106
553
0
0
1
1106
553
0
0
1
1106
553
0
0
1
1106
553
0
0
1
1106
553
0
0
1
1106
553
0
0
1
1106
553
0
0
1
1106
553
0
0
1
1106
553
0
0
1
1106
553
0
0
1
1106
553
0
0
1
1106
553
0
0
1
1106
553
0
0
1
1106
553
0
0
1
1106
553
0
0
1
1106
553
0
0
1
1106
553
0
0
1
1106
553
0
0
1
1106
553
0
0
1
1106
553
0
0
1
1106
553
0
0
1
1106
553
0
0
1
1106
553
0
0
0
1106
553
0
0
0
1106
553
0
0
0
1106
553
0
0
0
1106
553
0
0
0
1106
553
0
0
0
1106
553
0
0
0
1106
553
0
0
0
1106
553
0
0
0
1106
553
0
0
0
1106
553
0
0
0
1106
553
0
0
0
1106
553
0
0
0
1106
553
0
0
0
1106
553
0
0
0
1106
553
0
0
0
1106
553
0
0
0
1106
553
0
0
1
1106
553
0
0
1
1106
553
0
0
1
1106
553
0
0
2
1106
553
0
0
3
1106
553
0
0
3
1106
553
0
0
3
1106
553
0
0
3
1106
553
0
0
3
1106
553
0
0
3
1106
553
0
0
3
1106
553
0
0
3
1106
553
0
0
4
1106
553
0
0
4
1106
553
0
0
4
1106
553
0
0
5
1106
553
0
0
5
1106
553
0
0
6
1106
553
0
0
7
1106
553
0
0
8
1106
553
0
0
10
1106
553
0
0
13
1106
553
0
0
17
1106
553
0
0
23
1106
553
0
0
31
1106
553
0
0
44
1106
553
0
0
62
1106
553
0
0
84
1106
553
0
0
110
1106
553
0
0
140
1106
553
0
0
168
1106
553
0
0
192
1106
553
0
0
206
1106
553
0
0
209
1106
553
0
0
209
1106
553
0
0
223
1106
553
0
0
285
1106
553
0
0
434
1106
553
0
0
704
1106
553
0
0
1100
1106
553
0
0
1588
1106
553
0
0
2101
1106
553
0
0
2557
1106
553
0
0
2877
1106
553
0
0
3035
1106
553
0
0
3069
1106
553
0
0
3069
1106
553
0
0
3130
1106
553
0
0
3312
1106
553
0
0
3605
1106
553
0
0
3950
1106
553
0
0
4280
1106
553
0
0
4552
1106
553
0
0
4750
1106
553
0
0
4878
1106
553
0
0
4948
1106
553
0
0
4978
1106
553
0
0
4982
1106
553
0
0
4966
1125
562
1
0
4939
1125
562
0
0
4911
1125
562
0
0
4888
1125
562
0
0
4878
1125
562
0
0
4883
1125
562
0
0
4893
1125
562
0
0
4891
1125
562
0
0
4841
1125
562
0
0
4702
1125
562
0
0
4441
1125
562
0
0
4050
1125
562
0
0
3566
1125
562
0
0
3055
1125
562
0
0
2600
1125
562
0
0
2281
1125
562
0
0
2123
1125
562
0
0
2089
1125
562
0
0
2088
1125
562
0
0
2027
1125
562
0
0
1844
1125
562
0
0
1549
1125
562
0
0
1203
1125
562
0
0
869
1125
562
0
0
593
1125
562
0
0
391
1125
562
0
0
254
1125
562
0
0
171
1125
562
0
0
123
1125
562
0
0
97
1125
562
0
0
86
1125
562
0
0
84
1125
562
0
0
84
1125
562
0
0
82
1125
562
0
0
78
1125
562
0
0
69
1125
562
0
0
58
1125
562
0
0
46
1125
562
0
0
35
1125
562
0
0
24
1125
562
0
0
15
1125
562
0
0
10
1125
562
0
0
6
1125
562
0
0
4
1125
562
0
0
3
1125
562
0
0
2
1125
562
0
0
2
1125
562
0
0
1
1125
562
0
0
1
1125
562
0
0
1
1125
562
0
0
2
1125
562
0
0
2
1125
562
0
0
2
1125
562
0
0
2
1125
562
0
0
3
1125
562
0
0
3
1125
562
0
0
3
1125
562
0
0
3
1125
562
0
0
3
1125
562
0
0
3
1125
562
0
0
3
1125
562
0
0
3
1125
562
0
0
2
1125
562
0
0
3
1125
562
0
0
3
1125
562
0
0
3
1125
562
0
0
3
1125
562
0
0
3
1125
562
0
0
3
1125
562
0
0
3
1125
562
0
0
3
1125
562
0
0
3
1125
562
0
0
3
1125
562
0
0
3
1125
562
0
0
3
1125
562
0
0
3
1125
562
0
0
3
1125
562
0
0
3
1125
562
0
0
3
1125
562
0
0
3
1125
562
0
0
2
1125
562
0
0
2
1125
562
0
0
2
1125
562
0
0
1
1125
562
0
0
1
1125
562
0
0
1
1125
562
0
0
1
1125
562
0
0
1
1125
562
0
0
1
1125
562
0
0
1
1125
562
0
0
1
1125
562
0
0
1
1125
562
0
0
1
1125
562
0
0
1
1125
562
0
0
0
1125
562
0
0
0
1125
562
0
0
0
1125
562
0
0
0
1125
562
0
0
0
1125
562
0
0
0
1125
562
0
0
0
1125
562
0
0
0
1125
562
0
0
0
1125
562
0
0
0
1125
562
0
0
0
1125
562
0
0
0
1125
562
0
0
0
1125
562
0
0
1
1125
562
0
0
1
1125
562
0
0
1
1125
562
0
0
1
1125
562
0
0
1
1125
562
0
0
1
1125
562
0
0
1
1125
562
0
0
1
1125
562
0
0
1
1125
562
0
0
2
1125
562
0
0
2
1125
562
0
0
2
1125
562
0
0
3
1125
562
0
0
4
1125
562
0
0
5
1125
562
0
0
9
1125
562
0
0
14
1125
562
0
0
23
1125
562
0
0
35
1125
562
0
0
53
1125
562
0
0
75
1125
562
0
0
103
1125
562
0
0
135
1125
562
0
0
167
1125
562
0
0
195
1125
562
0
0
217
1125
562
0
0
228
1125
562
0
0
229
1125
562
0
0
232
1125
562
0
0
264
1125
562
0
0
365
1125
562
0
0
578
1125
562
0
0
932
1125
562
0
0
1412
1125
562
0
0
1975
1125
562
0
0
2530
1125
562
0
0
2978
1125
562
0
0
3248
1125
562
0
0
3345
1125
562
0
0
3349
1125
562
0
0
3377
1125
562
0
0
3522
1125
562
0
0
3810
1125
562
0
0
4190
1125
562
0
0
4585
1125
562
0
0
4922
1125
562
0
0
5168
1125
562
0
0
5328
1125
562
0
0
5413
1125
562
0
0
5449
1125
562
0
0
5452
1125
562
0
0
5435
1157
578
1
0
5406
1157
578
0
0
5374
1157
578
0
0
5346
1157
578
0
0
5326
1157
578
0
0
5320
1157
578
0
0
5327
1157
578
0
0
5334
1157
578
0
0
5313
1157
578
0
0
5223
1157
578
0
0
5018
1157
578
0
0
4671
1157
578
0
0
4196
1157
578
0
0
3636
1157
578
0
0
3083
1157
578
0
0
2636
1157
578
0
0
2367
1157
578
0
0
2270
1157
578
0
0
2266
1157
578
0
0
2238
1157
578
0
0
2092
1157
578
0
0
1804
1157
578
0
0
1422
1157
578
0
0
1026
1157
578
0
0
686
1157
578
0
0
434
1157
578
0
0
266
1157
578
0
0
169
1157
578
0
0
116
1157
578
0
0
90
1157
578
0
0
80
1157
578
0
0
77
1157
578
0
0
77
1157
578
0
0
77
1157
578
0
0
75
1157
578
0
0
70
1157
578
0
0
62
1157
578
0
0
51
1157
578
0
0
40
1157
578
0
0
29
1157
578
0
0
21
1157
578
0
0
15
1157
578
0
0
10
1157
578
0
0
7
1157
578
0
0
5
1157
578
0
0
4
1157
578
0
0
4
1157
578
0
0
3
1157
578
0
0
4
1157
578
0
0
4
1157
578
0
0
4
1157
578
0
0
5
1157
578
0
0
6
1157
578
0
0
6
1157
578
0
0
7
1157
578
0
0
7
1157
578
0
0
7
1157
578
0
0
7
1157
578
0
0
7
1157
578
0
0
7
1157
578
0
0
6
1157
578
0
0
6
1157
578
0
0
6
1157
578
0
0
6
1157
578
0
0
7
1157
578
0
0
7
1157
578
0
0
7
1157
578
0
0
8
1157
578
0
0
8
1157
578
0
0
8
1157
578
0
0
8
1157
578
0
0
8
1157
578
0
0
7
1157
578
0
0
7
1157
578
0
0
7
1157
578
0
0
6
1157
578
0
0
6
1157
578
0
0
6
1157
578
0
0
6
1157
578
0
0
5
1157
578
0
0
5
1157
578
0
0
4
1157
578
0
0
4
1157
578
0
0
3
1157
578
0
0
3
1157
578
0
0
2
1157
578
0
0
2
1157
578
0
0
2
1157
578
0
0
2
1157
578
0
0
2
1157
578
0
0
2
1157
578
0
0
2
1157
578
0
0
2
1157
578
0
0
1
1157
578
0
0
1
1157
578
0
0
1
1157
578
0
0
1
1157
578
0
0
0
1157
578
0
0
0
1157
578
0
0
0
1157
578
0
0
1
1157
578
0
0
1
1157
578
0
0
1
1157
578
0
0
1
1157
578
0
0
1
1157
578
0
0
2
1157
578
0
0
2
1157
578
0
0
2
1157
578
0
0
3
1157
578
0
0
3
1157
578
0
0
3
1157
578
0
0
3
1157
578
0
0
3
1157
578
0
0
3
1157
578
0
0
3
1157
578
0
0
4
1157
578
0
0
4
1157
578
0
0
5
1157
578
0
0
6
1157
578
0
0
8
1157
578
0
0
10
1157
578
0
0
13
1157
578
0
0
19
1157
578
0
0
29
1157
578
0
0
43
1157
578
0
0
64
1157
578
0
0
92
1157
578
0
0
126
1157
578
0
0
162
1157
578
0
0
198
1157
578
0
0
228
1157
578
0
0
249
1157
578
0
0
257
1157
578
0
0
257
1157
578
0
0
265
1157
578
0
0
316
1157
578
0
0
452
1157
578
0
0
716
1157
578
0
0
1119
1157
578
0
0
1640
1157
578
0
0
2212
1157
578
0
0
2732
1157
578
0
0
3114
1157
578
0
0
3311
1157
578
0
0
3362
1157
578
0
0
3362
1157
578
0
0
3428
1157
578
0
0
3636
1157
578
0
0
3974
1157
578
0
0
4369
1157
578
0
0
4734
1157
578
0
0
5019
1157
578
0
0
5206
1157
578
0
0
5308
1157
578
0
0
5353
1157
578
0
0
5358
1157
578
0
0
5339
1182
591
1
0
5308
1182
591
0
0
5272
1182
591
0
0
5236
1182
591
0
0
5206
1182
591
0
0
5187
1182
591
0
0
5182
1182
591
0
0
5187
1182
591
0
0
5186
1182
591
0
0
5143
1182
591
0
0
5015
1182
591
0
0
4759
1182
591
0
0
4361
1182
591
0
0
3844
1182
591
0
0
3275
1182
591
0
0
2756
1182
591
0
0
2375
1182
591
0
0
2178
1182
591
0
0
2128
1182
591
0
0
2128
1182
591
0
0
2060
1182
591
0
0
1852
1182
591
0
0
1512
1182
591
0
0
1116
1182
591
0
0
749
1182
591
0
0
460
1182
591
0
0
268
1182
591
0
0
156
1182
591
0
0
97
1182
591
0
0
71
1182
591
0
0
61
1182
591
0
0
59
1182
591
0
0
59
1182
591
0
0
58
1182
591
0
0
58
1182
591
0
0
56
1182
591
0
0
53
1182
591
0
0
48
1182
591
0
0
41
1182
591
0
0
32
1182
591
0
0
24
1182
591
0
0
16
1182
591
0
0
11
1182
591
0
0
7
1182
591
0
0
4
1182
591
0
0
2
1182
591
0
0
1
1182
591
0
0
1
1182
591
0
0
1
1182
591
0
0
0
1182
591
0
0
0
1182
591
0
0
1
1182
591
0
0
1
1182
591
0
0
1
1182
591
0
0
1
1182
591
0
0
1
1182
591
0
0
1
1182
591
0
0
1
1182
591
0
0
1
1182
591
0
0
1
1182
591
0
0
1
1182
591
0
0
1
1182
591
0
0
1
1182
591
0
0
1
1182
591
0
0
1
1182
591
0
0
1
1182
591
0
0
2
1182
591
0
0
2
1182
591
0
0
1
1182
591
0
0
1
1182
591
0
0
1
1182
591
0
0
1
1182
591
0
0
1
1182
591
0
0
2
1182
591
0
0
2
1182
591
0
0
2
1182
591
0
0
1
1182
591
0
0
1
1182
591
0
0
1
1182
591
0
0
1
1182
591
0
0
1
1182
591
0
0
1
1182
591
0
0
1
1182
591
0
0
1
1182
591
0
0
1
1182
591
0
0
1
1182
591
0
0
1
1182
591
0
0
1
1182
591
0
0
1
1182
591
0
0
0
1182
591
0
0
0
1182
591
0
0
0
1182
591
0
0
0
1182
591
0
0
0
1182
591
0
0
0
1182
591
0
0
0
1182
591
0
0
0
1182
591
0
0
0
1182
591
0
0
0
1182
591
0
0
0
1182
591
0
0
0
1182
591
0
0
0
1182
591
0
0
0
1182
591
0
0
0
1182
591
0
0
1
1182
591
0
0
1
1182
591
0
0
1
1182
591
0
0
2
1182
591
0
0
2
1182
591
0
0
2
1182
591
0
0
2
1182
591
0
0
2
1182
591
0
0
2
1182
591
0
0
2
1182
591
0
0
2
1182
591
0
0
2
1182
591
0
0
3
1182
591
0
0
3
1182
591
0
0
3
1182
591
0
0
4
1182
591
0
0
5
1182
591
0
0
6
1182
591
0
0
8
1182
591
0
0
11
1182
591
0
0
17
1182
591
0
0
25
1182
591
0
0
38
1182
591
0
0
58
1182
591
0
0
80
1182
591
0
0
106
1182
591
0
0
132
1182
591
0
0
157
1182
591
0
0
176
1182
591
0
0
185
1182
591
0
0
186
1182
591
0
0
187
1182
591
0
0
208
1182
591
0
0
278
1182
591
0
0
432
1182
591
0
0
702
1182
591
0
0
1083
1182
591
0
0
1540
1182
591
0
0
2004
1182
591
0
0
2385
1182
591
0
0
2626
1182
591
0
0
2719
1182
591
0
0
2727
1182
591
0
0
2744
1182
591
0
0
2855
1182
591
0
0
3085
1182
591
0
0
3385
1182
591
0
0
3691
1182
591
0
0
3953
1182
591
0
0
4142
1182
591
0
0
4265
1182
591
0
0
4336
1182
591
0
0
4371
1182
591
0
0
4380
1182
591
0
0
4372
1173
586
1
0
4351
1173
586
0
0
4327
1173
586
0
0
4302
1173
586
0
0
4284
1173
586
0
0
4278
1173
586
0
0
4282
1173
586
0
0
4289
1173
586
0
0
4278
1173
586
0
0
4217
1173
586
0
0
4071
1173
586
0
0
3808
1173
586
0
0
3430
1173
586
0
0
2977
1173
586
0
0
2515
1173
586
0
0
2135
1173
586
0
0
1895
1173
586
0
0
1802
1173
586
0
0
1794
1173
586
0
0
1777
1173
586
0
0
1665
1173
586
0
0
1435
1173
586
0
0
1134
1173
586
0
0
827
1173
586
0
0
563
1173
586
0
0
371
1173
586
0
0
242
1173
586
0
0
163
1173
586
0
0
115
1173
586
0
0
87
1173
586
0
0
72
1173
586
0
0
67
1173
586
0
0
66
1173
586
0
0
66
1173
586
0
0
65
1173
586
0
0
61
1173
586
0
0
56
1173
586
0
0
47
1173
586
0
0
38
1173
586
0
0
28
1173
586
0
0
20
1173
586
0
0
14
1173
586
0
0
10
1173
586
0
0
6
1173
586
0
0
4
1173
586
0
0
3
1173
586
0
0
3
1173
586
0
0
2
1173
586
0
0
2
1173
586
0
0
2
1173
586
0
0
2
1173
586
0
0
2
1173
586
0
0
3
1173
586
0
0
3
1173
586
0
0
3
1173
586
0
0
3
1173
586
0
0
3
1173
586
0
0
3
1173
586
0
0
3
1173
586
0
0
2
1173
586
0
0
2
1173
586
0
0
2
1173
586
0
0
2
1173
586
0
0
2
1173
586
0
0
3
1173
586
0
0
3
1173
586
0
0
3
1173
586
0
0
3
1173
586
0
0
2
1173
586
0
0
2
1173
586
0
0
2
1173
586
0
0
2
1173
586
0
0
2
1173
586
0
0
2
1173
586
0
0
2
1173
586
0
0
2
1173
586
0
0
1
1173
586
0
0
1
1173
586
0
0
1
1173
586
0
0
1
1173
586
0
0
1
1173
586
0
0
1
1173
586
0
0
1
1173
586
0
0
1
1173
586
0
0
0
1173
586
0
0
0
1173
586
0
0
0
1173
586
0
0
0
1173
586
0
0
0
1173
586
0
0
0
1173
586
0
0
0
1173
586
0
0
0
1173
586
0
0
0
1173
586
0
0
0
1173
586
0
0
0
1173
586
0
0
0
1173
586
0
0
0
1173
586
0
0
0
1173
586
0
0
0
1173
586
0
0
0
1173
586
0
0
0
1173
586
0
0
1
1173
586
0
0
1
1173
586
0
0
1
1173
586
0
0
1
1173
586
0
0
2
1173
586
0
0
2
1173
586
0
0
2
1173
586
0
0
2
1173
586
0
0
2
1173
586
0
0
2
1173
586
0
0
2
1173
586
0
0
2
1173
586
0
0
3
1173
586
0
0
3
1173
586
0
0
4
1173
586
0
0
5
1173
586
0
0
6
1173
586
0
0
7
1173
586
0
0
9
1173
586
0
0
10
1173
586
0
0
12
1173
586
0
0
16
1173
586
0
0
21
1173
586
0
0
30
1173
586
0
0
42
1173
586
0
0
59
1173
586
0
0
82
1173
586
0
0
108
1173
586
0
0
138
1173
586
0
0
165
1173
586
0
0
188
1173
586
0
0
199
1173
586
0
0
202
1173
586
0
0
202
1173
586
0
0
223
1173
586
0
0
296
1173
586
0
0
459
1173
586
0
0
741
1173
586
0
0
1137
1173
586
0
0
1617
1173
586
0
0
2114
1173
586
0
0
2547
1173
586
0
0
2835
1173
586
0
0
2966
1173
586
0
0
2986
1173
586
0
0
2993
1173
586
0
0
3086
1173
586
0
0
3308
1173
586
0
0
3641
1173
586
0
0
4013
1173
586
0
0
4358
1173
586
0
0
4631
1173
586
0
0
4818
1173
586
0
0
4929
1173
586
0
0
4985
1173
586
0
0
5001
1173
586
0
0
4993
1185
592
1
0
4971
1185
592
0
0
4942
1185
592
0
0
4914
1185
592
0
0
4894
1185
592
0
0
4888
1185
592
0
0
4895
1185
592
0
0
4907
1185
592
0
0
4898
1185
592
0
0
4835
1185
592
0
0
4681
1185
592
0
0
4406
1185
592
0
0
4014
1185
592
0
0
3538
1185
592
0
0
3044
1185
592
0
0
2612
1185
592
0
0
2324
1185
592
0
0
2193
1185
592
0
0
2172
1185
592
0
0
2164
1185
592
0
0
2071
1185
592
0
0
1847
1185
592
0
0
1513
1185
592
0
0
1139
1185
592
0
0
792
1185
592
0
0
516
1185
592
0
0
324
1185
592
0
0
204
1185
592
0
0
136
1185
592
0
0
102
1185
592
0
0
88
1185
592
0
0
84
1185
592
0
0
84
1185
592
0
0
84
1185
592
0
0
81
1185
592
0
0
75
1185
592
0
0
65
1185
592
0
0
53
1185
592
0
0
41
1185
592
0
0
30
1185
592
0
0
21
1185
592
0
0
14
1185
592
0
0
10
1185
592
0
0
6
1185
592
0
0
4
1185
592
0
0
3
1185
592
0
0
3
1185
592
0
0
2
1185
592
0
0
3
1185
592
0
0
3
1185
592
0
0
3
1185
592
0
0
3
1185
592
0
0
4
1185
592
0
0
4
1185
592
0
0
4
1185
592
0
0
4
1185
592
0
0
4
1185
592
0
0
4
1185
592
0
0
4
1185
592
0
0
4
1185
592
0
0
4
1185
592
0
0
4
1185
592
0
0
3
1185
592
0
0
3
1185
592
0
0
3
1185
592
0
0
3
1185
592
0
0
3
1185
592
0
0
4
1185
592
0
0
4
1185
592
0
0
4
1185
592
0
0
4
1185
592
0
0
4
1185
592
0
0
4
1185
592
0
0
4
1185
592
0
0
4
1185
592
0
0
4
1185
592
0
0
3
1185
592
0
0
3
1185
592
0
0
3
1185
592
0
0
3
1185
592
0
0
2
1185
592
0
0
2
1185
592
0
0
2
1185
592
0
0
1
1185
592
0
0
1
1185
592
0
0
1
1185
592
0
0
1
1185
592
0
0
1
1185
592
0
0
1
1185
592
0
0
2
1185
592
0
0
2
1185
592
0
0
2
1185
592
0
0
2
1185
592
0
0
2
1185
592
0
0
2
1185
592
0
0
2
1185
592
0
0
2
1185
592
0
0
2
1185
592
0
0
2
1185
592
0
0
2
1185
592
0
0
2
1185
592
0
0
2
1185
592
0
0
3
1185
592
0
0
3
1185
592
0
0
3
1185
592
0
0
3
1185
592
0
0
4
1185
592
0
0
4
1185
592
0
0
4
1185
592
0
0
4
1185
592
0
0
4
1185
592
0
0
4
1185
592
0
0
4
1185
592
0
0
4
1185
592
0
0
4
1185
592
0
0
5
1185
592
0
0
6
1185
592
0
0
6
1185
592
0
0
7
1185
592
0
0
8
1185
592
0
0
10
1185
592
0
0
12
1185
592
0
0
14
1185
592
0
0
18
1185
592
0
0
25
1185
592
0
0
34
1185
592
0
0
47
1185
592
0
0
65
1185
592
0
0
85
1185
592
0
0
110
1185
592
0
0
134
1185
592
0
0
154
1185
592
0
0
168
1185
592
0
0
174
1185
592
0
0
174
1185
592
0
0
181
1185
592
0
0
224
1185
592
0
0
335
1185
592
0
0
549
1185
592
0
0
869
1185
592
0
0
1279
1185
592
0
0
1728
1185
592
0
0
2146
1185
592
0
0
2460
1185
592
0
0
2632
1185
592
0
0
2682
1185
592
0
0
2682
1185
592
0
0
2719
1185
592
0
0
2859
1185
592
0
0
3110
1185
592
0
0
3416
1185
592
0
0
3715
1185
592
0
0
3958
1185
592
0
0
4127
1185
592
0
0
4229
1185
592
0
0
4278
1185
592
0
0
4295
1185
592
0
0
4292
1173
586
1
0
4277
1173
586
0
0
4255
1173
586
0
0
4231
1173
586
0
0
4210
1173
586
0
0
4196
1173
586
0
0
4192
1173
586
0
0
4194
1173
586
0
0
4191
1173
586
0
0
4153
1173
586
0
0
4048
1173
586
0
0
3840
1173
586
0
0
3525
1173
586
0
0
3117
1173
586
0
0
2671
1173
586
0
0
2254
1173
586
0
0
1941
1173
586
0
0
1770
1173
586
0
0
1719
1173
586
0
0
1720
1173
586
0
0
1681
1173
586
0
0
1540
1173
586
0
0
1288
1173
586
0
0
981
1173
586
0
0
680
1173
586
0
0
434
1173
586
0
0
261
1173
586
0
0
153
1173
586
0
0
94
1173
586
0
0
65
1173
586
0
0
50
1173
586
0
0
45
1173
586
0
0
43
1173
586
0
0
43
1173
586
0
0
43
1173
586
0
0
43
1173
586
0
0
41
1173
586
0
0
38
1173
586
0
0
34
1173
586
0
0
29
1173
586
0
0
22
1173
586
0
0
17
1173
586
0
0
12
1173
586
0
0
9
1173
586
0
0
8
1173
586
0
0
6
1173
586
0
0
6
1173
586
0
0
5
1173
586
0
0
5
1173
586
0
0
5
1173
586
0
0
5
1173
586
0
0
5
1173
586
0
0
6
1173
586
0
0
6
1173
586
0
0
7
1173
586
0
0
7
1173
586
0
0
7
1173
586
0
0
7
1173
586
0
0
6
1173
586
0
0
6
1173
586
0
0
6
1173
586
0
0
5
1173
586
0
0
5
1173
586
0
0
5
1173
586
0
0
5
1173
586
0
0
5
1173
586
0
0
5
1173
586
0
0
6
1173
586
0
0
6
1173
586
0
0
6
1173
586
0
0
6
1173
586
0
0
5
1173
586
0
0
5
1173
586
0
0
5
1173
586
0
0
5
1173
586
0
0
4
1173
586
0
0
4
1173
586
0
0
4
1173
586
0
0
4
1173
586
0
0
3
1173
586
0
0
3
1173
586
0
0
3
1173
586
0
0
2
1173
586
0
0
2
1173
586
0
0
1
1173
586
0
0
1
1173
586
0
0
1
1173
586
0
0
1
1173
586
0
0
1
1173
586
0
0
1
1173
586
0
0
1
1173
586
0
0
1
1173
586
0
0
1
1173
586
0
0
1
1173
586
0
0
1
1173
586
0
0
1
1173
586
0
0
1
1173
586
0
0
1
1173
586
0
0
1
1173
586
0
0
1
1173
586
0
0
1
1173
586
0
0
2
1173
586
0
0
2
1173
586
0
0
2
1173
586
0
0
3
1173
586
0
0
3
1173
586
0
0
3
1173
586
0
0
3
1173
586
0
0
3
1173
586
0
0
3
1173
586
0
0
4
1173
586
0
0
4
1173
586
0
0
3
1173
586
0
0
4
1173
586
0
0
4
1173
586
0
0
4
1173
586
0
0
4
1173
586
0
0
5
1173
586
0
0
6
1173
586
0
0
7
1173
586
0
0
7
1173
586
0
0
9
1173
586
0
0
10
1173
586
0
0
13
1173
586
0
0
18
1173
586
0
0
25
1173
586
0
0
37
1173
586
0
0
53
1173
586
0
0
74
1173
586
0
0
98
1173
586
0
0
124
1173
586
0
0
149
1173
586
0
0
173
1173
586
0
0
190
1173
586
0
0
198
1173
586
0
0
198
1173
586
0
0
204
1173
586
0
0
245
1173
586
0
0
357
1173
586
0
0
570
1173
586
0
0
896
1173
586
0
0
1307
1173
586
0
0
1748
1173
586
0
0
2144
1173
586
0
0
2432
1173
586
0
0
2581
1173
586
0
0
2622
1173
586
0
0
2621
1111
555
1
0
2656
1111
555
0
0
2772
1111
555
0
0
2968
1111
555
0
0
3202
1111
555
0
0
3430
1111
555
0
0
3620
1111
555
0
0
3765
1111
555
0
0
3862
1111
555
0
0
3918
1111
555
0
0
3945
1111
555
0
0
3950
1111
555
0
0
3939
1111
555
0
0
3919
1111
555
0
0
3894
1111
555
0
0
3869
1111
555
0
0
3852
1111
555
0
0
3847
1111
555
0
0
3851
1111
555
0
0
3851
1111
555
0
0
3818
1111
555
0
0
3713
1111
555
0
0
3507
1111
555
0
0
3186
1111
555
0
0
2779
1111
555
0
0
2341
1111
555
0
0
1947
1111
555
0
0
1660
1111
555
0
0
1512
1111
555
0
0
1471
1111
555
0
0
1471
1111
555
0
0
1435
1111
555
0
0
1319
1111
555
0
0
1121
1111
555
0
0
886
1111
555
0
0
656
1111
555
0
0
464
1111
555
0
0
314
1111
555
0
0
210
1111
555
0
0
143
1111
555
0
0
99
1111
555
0
0
73
1111
555
0
0
60
1111
555
0
0
55
1111
555
0
0
54
1111
555
0
0
54
1111
555
0
0
54
1111
555
0
0
52
1111
555
0
0
47
1111
555
0
0
41
1111
555
0
0
33
1111
555
0
0
26
1111
555
0
0
19
1111
555
0
0
14
1111
555
0
0
10
1111
555
0
0
7
1111
555
0
0
6
1111
555
0
0
5
1111
555
0
0
5
1111
555
0
0
6
1111
555
0
0
8
1111
555
0
0
10
1111
555
0
0
14
1111
555
0
0
19
1111
555
0
0
26
1111
555
0
0
32
1111
555
0
0
38
1111
555
0
0
42
1111
555
0
0
44
1111
555
0
0
44
1111
555
0
0
44
1111
555
0
0
44
1111
555
0
0
45
1111
555
0
0
46
1111
555
0
0
48
1111
555
0
0
51
1111
555
0
0
55
1111
555
0
0
58
1111
555
0
0
61
1111
555
0
0
63
1111
555
0
0
64
1111
555
0
0
65
1111
555
0
0
66
1111
555
0
0
66
1111
555
0
0
65
1111
555
0
0
65
1111
555
0
0
64
1111
555
0
0
63
1111
555
0
0
63
1111
555
0
0
61
1111
555
0
0
60
1111
555
0
0
57
1111
555
0
0
53
1111
555
0
0
49
1111
555
0
0
43
1111
555
0
0
38
1111
555
0
0
37
1111
555
0
0
40
1111
555
0
0
50
1111
555
0
0
66
1111
555
0
0
87
1111
555
0
0
111
1111
555
0
0
136
1111
555
0
0
161
1111
555
0
0
180
1111
555
0
0
192
1111
555
0
0
194
1111
555
0
0
191
1126
563
0
0
198
1126
563
0
0
244
1126
563
0
0
366
1126
563
0
0
595
1126
563
0
0
941
1126
563
0
0
1374
1126
563
0
0
1846
1126
563
0
0
2272
1126
563
0
0
2579
1126
563
0
0
2733
1126
563
0
0
2772
1126
563
0
0
2772
1126
563
0
0
2823
1126
563
0
0
2977
1126
563
0
0
3229
1126
563
0
0
3523
1126
563
0
0
3805
1126
563
0
0
4032
1126
563
0
0
4191
1126
563
0
0
4289
1126
563
0
0
4335
1126
563
0
0
4351
1126
563
0
0
4345
1126
563
1
0
4326
1126
563
0
0
4302
1126
563
0
0
4276
1126
563
0
0
4254
1126
563
0
0
4240
1126
563
0
0
4238
1126
563
0
0
4243
1126
563
0
0
4240
1126
563
0
0
4198
1126
563
0
0
4081
1126
563
0
0
3856
1126
563
0
0
3512
1126
563
0
0
3081
1126
563
0
0
2611
1126
563
0
0
2186
1126
563
0
0
1880
1126
563
0
0
1726
1126
563
0
0
1687
1126
563
0
0
1687
1126
563
0
0
1636
1126
563
0
0
1482
1126
563
0
0
1230
1126
563
0
0
935
1126
563
0
0
653
1126
563
0
0
424
1126
563
0
0
261
1126
563
0
0
157
1126
563
0
0
98
1126
563
0
0
66
1126
563
0
0
52
1126
563
0
0
46
1126
563
0
0
45
1126
563
0
0
44
1126
563
0
0
44
1126
563
0
0
43
1126
563
0
0
39
1126
563
0
0
34
1126
563
0
0
28
1126
563
0
0
21
1126
563
0
0
15
1126
563
0
0
10
1126
563
0
0
7
1126
563
0
0
6
1126
563
0
0
4
1126
563
0
0
4
1126
563
0
0
3
1126
563
0
0
3
1126
563
0
0
3
1126
563
0
0
4
1126
563
0
0
4
1126
563
0
0
4
1126
563
0
0
4
1126
563
0
0
5
1126
563
0
0
5
1126
563
0
0
5
1126
563
0
0
4
1126
563
0
0
4
1126
563
0
0
4
1126
563
0
0
4
1126
563
0
0
4
1126
563
0
0
4
1126
563
0
0
4
1126
563
0
0
4
1126
563
0
0
5
1126
563
0
0
5
1126
563
0
0
5
1126
563
0
0
5
1126
563
0
0
5
1126
563
0
0
5
1126
563
0
0
5
1126
563
0
0
4
1126
563
0
0
4
1126
563
0
0
4
1126
563
0
0
4
1126
563
0
0
3
1126
563
0
0
3
1126
563
0
0
3
1126
563
0
0
3
1126
563
0
0
3
1126
563
0
0
2
1126
563
0
0
2
1126
563
0
0
2
1126
563
0
0
1
1126
563
0
0
1
1126
563
0
0
1
1126
563
0
0
1
1126
563
0
0
1
1126
563
0
0
1
1126
563
0
0
1
1126
563
0
0
1
1126
563
0
0
1
1126
563
0
0
0
1126
563
0
0
0
1126
563
0
0
0
1126
563
0
0
0
1126
563
0
0
0
1126
563
0
0
0
1126
563
0
0
0
1126
563
0
0
0
1126
563
0
0
0
1126
563
0
0
0
1126
563
0
0
0
1126
563
0
0
0
1126
563
0
0
0
1126
563
0
0
0
1126
563
0
0
0
1126
563
0
0
0
1126
563
0
0
0
1126
563
0
0
0
1126
563
0
0
0
1126
563
0
0
0
1126
563
0
0
0
1126
563
0
0
0
1126
563
0
0
0
1126
563
0
0
0
1126
563
0
0
0
1126
563
0
0
0
1126
563
0
0
0
1126
563
0
0
0
1126
563
0
0
0
1126
563
0
0
0
1126
563
0
0
0
1126
563
0
0
0
1126
563
0
0
0
1126
563
0
0
0
1126
563
0
0
0
1126
563
0
0
0
1126
563
0
0
0
1126
563
0
0
0
1126
563
0
0
0
1126
563
0
0
1
1126
563
0
0
1
1126
563
0
0
1
1126
563
0
0
1
1126
563
0
0
2
1126
563
0
0
3
1126
563
0
0
4
1126
563
0
0
5
1126
563
0
0
7
1126
563
0
0
11
1126
563
0
0
18
1126
563
0
0
28
1126
563
0
0
43
1126
563
0
0
62
1126
563
0
0
84
1126
563
0
0
109
1126
563
0
0
135
1126
563
0
0
159
1126
563
0
0
176
1126
563
0
0
185
1126
563
0
0
185
1126
563
0
0
190
1126
563
0
0
229
1126
563
0
0
341
1126
563
0
0
554
1126
563
0
0
881
1126
563
0
0
1306
1126
563
0
0
1778
1126
563
0
0
2219
1126
563
0
0
2559
1126
563
0
0
2757
1126
563
0
0
2824
1126
563
0
0
2827
1126
563
0
0
2850
1126
563
0
0
2966
1126
563
0
0
3195
1126
563
0
0
3495
1126
563
0
0
3801
1126
563
0
0
4063
1126
563
0
0
4256
1126
563
0
0
4382
1126
563
0
0
4451
1126
563
0
0
4480
1126
563
0
0
4483
1126
563
0
0
4471
1130
565
1
0
4453
1130
565
0
0
4429
1130
565
0
0
4405
1130
565
0
0
4388
1130
565
0
0
4379
1130
565
0
0
4380
1130
565
0
0
4378
1130
565
0
0
4346
1130
565
0
0
4241
1130
565
0
0
4036
1130
565
0
0
3717
1130
565
0
0
3297
1130
565
0
0
2829
1130
565
0
0
2391
1130
565
0
0
2053
1130
565
0
0
1857
1130
565
0
0
1791
1130
565
0
0
1789
1130
565
0
0
1765
1130
565
0
0
1649
1130
565
0
0
1420
1130
565
0
0
1119
1130
565
0
0
812
1130
565
0
0
548
1130
565
0
0
350
1130
565
0
0
218
1130
565
0
0
138
1130
565
0
0
95
1130
565
0
0
73
1130
565
0
0
62
1130
565
0
0
56
1130
565
0
0
54
1130
565
0
0
54
1130
565
0
0
54
1130
565
0
0
54
1130
565
0
0
52
1130
565
0
0
49
1130
565
0
0
43
1130
565
0
0
36
1130
565
0
0
28
1130
565
0
0
20
1130
565
0
0
15
1130
565
0
0
11
1130
565
0
0
8
1130
565
0
0
6
1130
565
0
0
4
1130
565
0
0
3
1130
565
0
0
2
1130
565
0
0
2
1130
565
0
0
2
1130
565
0
0
2
1130
565
0
0
2
1130
565
0
0
2
1130
565
0
0
2
1130
565
0
0
2
1130
565
0
0
2
1130
565
0
0
2
1130
565
0
0
2
1130
565
0
0
2
1130
565
0
0
2
1130
565
0
0
2
1130
565
0
0
2
1130
565
0
0
2
1130
565
0
0
2
1130
565
0
0
2
1130
565
0
0
2
1130
565
0
0
2
1130
565
0
0
2
1130
565
0
0
2
1130
565
0
0
2
1130
565
0
0
2
1130
565
0
0
2
1130
565
0
0
2
1130
565
0
0
1
1130
565
0
0
1
1130
565
0
0
1
1130
565
0
0
1
1130
565
0
0
1
1130
565
0
0
1
1130
565
0
0
2
1130
565
0
0
2
1130
565
0
0
3
1130
565
0
0
3
1130
565
0
0
4
1130
565
0
0
5
1130
565
0
0
5
1130
565
0
0
6
1130
565
0
0
6
1130
565
0
0
6
1130
565
0
0
8
1130
565
0
0
17
1130
565
0
0
33
1130
565
0
0
55
1130
565
0
0
81
1130
565
0
0
105
1130
565
0
0
126
1130
565
0
0
141
1130
565
0
0
148
1130
565
0
0
152
1130
565
0
0
152
1130
565
0
0
152
1130
565
0
0
156
1130
565
0
0
168
1130
565
0
0
193
1130
565
0
0
231
1130
565
0
0
284
1130
565
0
0
346
1130
565
0
0
410
1130
565
0
0
475
1130
565
0
0
531
1130
565
0
0
576
1130
565
0
0
603
1130
565
0
0
613
1130
565
0
0
613
1130
565
0
0
619
1130
565
0
0
652
1130
565
0
0
731
1130
565
0
0
855
1130
565
0
0
996
1130
565
0
0
1122
1130
565
0
0
1196
1130
565
0
0
1219
1130
565
0
0
1205
1130
565
1
1
1179
1130
565
0
1
1159
1130
565
0
1
1150
1130
565
0
1
1150
1130
565
0
1
1155
1130
565
0
1
1161
1130
565
0
1
1167
1130
565
0
1
1172
1130
565
0
1
1171
1130
565
0
1
1161
1130
565
0
1
1138
1130
565
0
1
1100
1130
565
0
1
1047
1130
565
0
1
985
1130
565
0
1
921
1130
565
0
1
856
1130
565
0
1
800
1130
565
0
1
755
1130
565
0
1
727
1130
565
0
1
716
1130
565
0
1
716
1130
565
0
1
709
1130
565
0
1
675
1130
565
0
1
595
1130
565
0
1
471
1130
565
0
1
330
1130
565
0
1
202
1130
565
0
1
119
1130
565
0
1
80
1130
565
0
1
72
1130
565
0
1
72
1130
565
0
1
67
1130
565
0
1
55
1130
565
0
1
40
1130
565
0
1
28
1130
565
0
1
18
1130
565
0
1
12
1130
565
0
1
7
1130
565
0
1
4
1130
565
0
1
2
1130
565
0
1
0
1130
565
0
1
0
1130
565
0
1
0
1130
565
0
1
0
1130
565
0
1
0
1130
565
0
1
0
1130
565
0
1
0
1130
565
0
1
0
1130
565
0
1
0
1130
565
0
1
0
1130
565
0
1
0
1130
565
0
1
0
1130
565
0
1
0
1130
565
0
1
0
1130
565
0
1
1
1130
565
0
1
1
1130
565
0
1
3
1130
565
0
1
4
1130
565
0
1
5
1130
565
0
1
7
1130
565
0
1
9
1130
565
0
1
12
1130
565
0
1
14
1130
565
0
1
16
1130
565
0
1
16
1130
565
0
1
16
1130
565
0
1
17
1130
565
0
1
22
1130
565
0
1
33
1130
565
0
1
51
1130
565
0
1
73
1130
565
0
1
97
1130
565
0
1
120
1130
565
0
1
138
1130
565
0
1
150
1130
565
0
1
156
1130
565
0
1
159
1130
565
0
1
159
1130
565
0
1
160
1130
565
0
1
164
1130
565
0
1
176
1130
565
0
1
197
1130
565
0
1
224
1130
565
0
1
254
1130
565
0
1
282
1130
565
0
1
305
1130
565
0
1
320
1130
565
0
1
328
1130
565
0
1
332
1130
565
0
1
331
1156
578
0
1
329
1156
578
0
1
329
1156
578
0
1
337
1156
578
0
1
356
1156
578
0
1
387
1156
578
0
1
426
1156
578
0
1
459
1156
578
0
1
477
1156
578
0
1
475
1193
596
0
1
460
1193
596
0
1
437
1193
596
0
1
414
1193
596
0
1
395
1193
596
0
1
381
1193
596
0
1
373
1193
596
0
1
370
1193
596
0
1
370
1193
596
0
1
372
1193
596
0
1
374
1193
596
0
1
372
1215
607
0
1
362
1215
607
0
1
342
1215
607
0
1
314
1215
607
0
1
284
1215
607
0
1
256
1215
607
0
1
232
1215
607
0
1
217
1215
607
0
1
208
1215
607
0
1
203
1215
607
0
1
203
1215
607
0
1
203
1215
607
0
1
200
1215
607
0
1
190
1215
607
0
1
170
1215
607
0
1
138
1215
607
0
1
99
1215
607
0
1
65
1215
607
0
1
42
1215
607
0
1
33
1215
607
0
1
31
1215
607
0
1
31
1215
607
0
1
30
1215
607
0
1
26
1215
607
0
1
22
1215
607
0
1
19
1215
607
0
1
16
1215
607
0
1
13
1215
607
0
1
10
1215
607
0
1
7
1215
607
0
1
5
1215
607
0
1
4
1215
607
0
1
3
1215
607
0
1
2
1215
607
0
1
2
1215
607
0
1
2
1215
607
0
1
2
1215
607
0
1
1
1215
607
0
1
1
1215
607
0
1
0
1215
607
0
1
0
1215
607
0
1
0
1215
607
0
1
0
1215
607
0
1
0
1215
607
0
1
0
1215
607
0
1
1
1215
607
0
1
2
1215
607
0
1
3
1215
607
0
1
4
1215
607
0
1
5
1215
607
0
1
7
1215
607
0
1
9
1215
607
0
1
10
1215
607
0
1
11
1215
607
0
1
12
1215
607
0
1
12
1215
607
0
1
13
1215
607
0
1
17
1215
607
0
1
26
1215
607
0
1
42
1215
607
0
1
63
1215
607
0
1
86
1215
607
0
1
107
1215
607
0
1
123
1215
607
0
1
135
1215
607
0
1
141
1215
607
0
1
143
1215
607
0
1
143
1215
607
0
1
144
1215
607
0
1
150
1215
607
0
1
163
1215
607
0
1
184
1215
607
0
1
210
1215
607
0
1
238
1215
607
0
1
264
1215
607
0
1
284
1215
607
0
1
300
1215
607
0
1
310
1215
607
0
1
316
1215
607
0
1
316
1215
607
0
1
315
1215
607
0
1
315
1215
607
0
1
323
1215
607
0
1
343
1215
607
0
1
372
1215
607
0
1
407
1215
607
0
1
434
1215
607
0
1
447
1215
607
0
1
444
1242
621
0
1
429
1242
621
0
1
408
1242
621
0
1
387
1242
621
0
1
368
1242
621
0
1
354
1242
621
0
1
344
1242
621
0
1
338
1242
621
0
1
338
1242
621
0
1
339
1242
621
0
1
340
1242
621
0
1
336
1256
628
0
1
325
1256
628
0
1
306
1256
628
0
1
281
1256
628
0
1
253
1256
628
0
1
227
1256
628
0
1
207
1256
628
0
1
191
1256
628
0
1
179
1256
628
0
1
172
1256
628
0
1
170
1256
628
0
1
170
1256
628
0
1
168
1256
628
0
1
159
1256
628
0
1
138
1256
628
0
1
108
1256
628
0
1
74
1256
628
0
1
46
1256
628
0
1
28
1256
628
0
1
22
1256
628
0
1
21
1256
628
0
1
21
1256
628
0
1
19
1256
628
0
1
17
1256
628
0
1
15
1256
628
0
1
14
1256
628
0
1
12
1256
628
0
1
11
1256
628
0
1
10
1256
628
0
1
8
1256
628
0
1
6
1256
628
0
1
4
1256
628
0
1
2
1256
628
0
1
1
1256
628
0
1
0
1256
628
0
1
0
1256
628
0
1
0
1256
628
0
1
0
1256
628
0
1
0
1256
628
0
1
0
1256
628
0
1
0
1256
628
0
1
0
1256
628
0
1
1
1256
628
0
1
0
1256
628
0
1
0
1256
628
0
1
0
1256
628
0
1
1
1256
628
0
1
2
1256
628
0
1
4
1256
628
0
1
6
1256
628
0
1
7
1256
628
0
1
9
1256
628
0
1
11
1256
628
0
1
12
1256
628
0
1
 13
1058
529
0
1
13
1058
529
0
1
13
1058
529
0
1
16
1058
529
0
1
25
1058
529
0
1
39
1058
529
0
1
60
1058
529
0
1
85
1058
529
0
1
107
1058
529
0
1
125
1058
529
0
1
137
1058
529
0
1
143
1058
529
0
1
145
1058
529
0
1
145
1058
529
0
1
146
1058
529
0
1
151
1058
529
0
1
163
1058
529
0
1
184
1058
529
0
1
210
1058
529
0
1
236
1058
529
0
1
259
1058
529
0
1
276
1058
529
0
1
286
1058
529
0
1
290
1058
529
0
1
290
1058
529
0
1
289
1058
529
0
1
287
1058
529
0
1
288
1058
529
0
1
294
1058
529
0
1
309
1058
529
0
1
332
1058
529
0
1
360
1058
529
0
1
386
1058
529
0
1
399
1058
529
0
1
397
1075
537
0
1
384
1075
537
0
1
363
1075
537
0
1
340
1075
537
0
1
321
1075
537
0
1
307
1075
537
0
1
297
1075
537
0
1
293
1075
537
0
1
292
1075
537
0
1
293
1075
537
0
1
293
1075
537
0
1
289
1075
537
0
1
278
1075
537
0
1
260
1075
537
0
1
236
1075
537
0
1
211
1075
537
0
1
189
1075
537
0
1
172
1075
537
0
1
161
1075
537
0
1
156
1075
537
0
1
154
1075
537
0
1
155
1075
537
0
1
156
1075
537
0
1
154
1067
533
0
1
146
1067
533
0
1
130
1067
533
0
1
106
1067
533
0
1
78
1067
533
0
1
52
1067
533
0
1
36
1067
533
0
1
29
1067
533
0
1
28
1067
533
0
1
28
1067
533
0
1
27
1067
533
0
1
24
1067
533
0
1
20
1067
533
0
1
18
1067
533
0
1
15
1067
533
0
1
14
1067
533
0
1
13
1067
533
0
1
13
1067
533
0
1
11
1067
533
0
1
10
1067
533
0
1
8
1067
533
0
1
5
1067
533
0
1
4
1067
533
0
1
3
1067
533
0
1
3
1067
533
0
1
3
1067
533
0
1
3
1067
533
0
1
2
1067
533
0
1
2
1067
533
0
1
1
1067
533
0
1
0
1067
533
0
1
0
1067
533
0
1
1
1067
533
0
1
2
1067
533
0
1
3
1067
533
0
1
5
1067
533
0
1
7
1067
533
0
1
9
1067
533
0
1
13
1067
533
0
1
16
1067
533
0
1
19
1067
533
0
1
21
1067
533
0
1
22
1067
533
0
1
22
1067
533
0
1
23
1067
533
0
1
29
1067
533
0
1
45
1067
533
0
1
73
1067
533
0
1
112
1067
533
0
1
155
1067
533
0
1
198
1067
533
0
1
236
1067
533
0
1
265
1067
533
0
1
281
1067
533
0
1
286
1067
533
0
1
286
1067
533
0
1
289
1067
533
0
1
301
1067
533
0
1
329
1067
533
0
1
372
1067
533
0
1
425
1067
533
0
1
478
1067
533
0
1
521
1067
533
0
1
552
1067
533
0
1
568
1067
533
0
1
574
1067
533
0
1
574
1067
533
0
1
572
1067
533
0
1
569
1067
533
0
1
572
1067
533
0
1
583
1067
533
0
1
607
1067
533
0
1
640
1067
533
0
1
676
1067
533
0
1
703
1067
533
0
1
713
1067
533
0
1
700
1112
556
0
1
672
1112
556
0
1
635
1112
556
0
1
597
1112
556
0
1
562
1112
556
0
1
530
1112
556
0
1
506
1112
556
0
1
492
1112
556
0
1
488
1112
556
0
1
488
1112
556
0
1
487
1112
556
0
1
475
1112
556
0
1
447
1112
556
0
1
403
1112
556
0
1
350
1112
556
0
1
297
1112
556
0
1
254
1112
556
0
1
222
1112
556
0
1
204
1112
556
0
1
197
1112
556
0
1
194
1112
556
0
1
194
1112
556
0
1
193
1112
556
0
1
188
1112
556
0
1
173
1112
556
0
1
147
1112
556
0
1
113
1112
556
0
1
76
1112
556
0
1
48
1112
556
0
1
34
1112
556
0
1
30
1112
556
0
1
30
1112
556
0
1
29
1112
556
0
1
23
1112
556
0
1
15
1112
556
0
1
9
1112
556
0
1
5
1112
556
0
1
2
1112
556
0
1
1
1112
556
0
1
0
1112
556
0
1
0
1112
556
0
1
0
1112
556
0
1
0
1112
556
0
1
0
1112
556
0
1
0
1112
556
0
1
0
1112
556
0
1
0
1112
556
0
1
0
1112
556
0
1
0
1112
556
0
1
0
1112
556
0
1
0
1112
556
0
1
0
1112
556
0
1
0
1112
556
0
1
0
1112
556
0
1
0
1112
556
0
1
1
1112
556
0
1
1
1112
556
0
1
3
1112
556
0
1
4
1112
556
0
1
6
1112
556
0
1
8
1112
556
0
1
11
1112
556
0
1
13
1112
556
0
1
15
1112
556
0
1
17
1112
556
0
1
17
1112
556
0
1
17
1112
556
0
1
18
1112
556
0
1
25
1112
556
0
1
41
1112
556
0
1
71
1112
556
0
1
114
1112
556
0
1
165
1112
556
0
1
216
1112
556
0
1
256
1112
556
0
1
284
1112
556
0
1
299
1112
556
0
1
303
1112
556
0
1
303
1112
556
0
1
306
1112
556
0
1
320
1112
556
0
1
350
1112
556
0
1
398
1112
556
0
1
465
1112
556
0
1
545
1112
556
0
1
628
1112
556
0
1
704
1112
556
0
1
764
1112
556
0
1
803
1112
556
0
1
822
1112
556
0
1
825
1112
556
0
1
823
1163
581
0
1
829
1163
581
0
1
859
1163
581
0
1
922
1163
581
0
1
 1015
990
495
0
1
1116
990
495
0
1
1201
990
495
0
1
1251
990
495
0
1
1257
990
495
0
1
1231
990
495
0
1
1188
990
495
0
1
1143
990
495
0
1
1106
990
495
0
1
1082
990
495
0
1
1072
990
495
0
1
1072
990
495
0
1
1078
990
495
0
1
1083
990
495
0
1
1083
990
495
0
1
1070
990
495
0
1
1040
990
495
0
1
992
990
495
0
1
925
990
495
0
1
846
990
495
0
1
765
990
495
0
1
690
990
495
0
1
629
990
495
0
1
589
990
495
0
1
568
990
495
0
1
563
990
495
0
1
563
990
495
0
1
555
990
495
0
1
523
990
495
0
1
458
990
495
0
1
365
990
495
0
1
264
990
495
0
1
177
990
495
0
1
121
990
495
0
1
99
990
495
0
1
95
990
495
0
1
95
990
495
0
1
89
990
495
0
1
76
990
495
0
1
58
990
495
0
1
40
990
495
0
1
26
990
495
0
1
16
990
495
0
1
10
990
495
0
1
8
990
495
0
1
7
990
495
0
1
7
990
495
0
1
7
990
495
0
1
6
990
495
0
1
5
990
495
0
1
3
990
495
0
1
2
990
495
0
1
1
990
495
0
1
0
990
495
0
1
0
990
495
0
1
0
990
495
0
1
0
990
495
0
1
0
990
495
0
1
0
990
495
0
1
0
990
495
0
1
1
990
495
0
1
1
990
495
0
1
3
990
495
0
1
5
990
495
0
1
8
990
495
0
1
12
990
495
0
1
17
990
495
0
1
21
990
495
0
1
25
990
495
0
1
28
990
495
0
1
29
990
495
0
1
29
990
495
0
1
30
990
495
0
1
36
990
495
0
1
50
990
495
0
1
77
990
495
0
1
113
990
495
0
1
151
990
495
0
1
188
990
495
0
1
216
990
495
0
1
235
990
495
0
1
246
990
495
0
1
250
990
495
0
1
251
990
495
0
1
251
990
495
0
1
255
990
495
0
1
268
990
495
0
1
292
990
495
0
1
326
990
495
0
1
362
990
495
0
1
394
990
495
0
1
419
990
495
0
1
435
990
495
0
1
444
990
495
0
1
446
990
495
0
1
445
998
499
0
1
441
998
499
0
1
437
998
499
0
1
435
998
499
0
1
443
998
499
0
1
465
998
499
0
1
497
998
499
0
1
530
998
499
0
1
551
998
499
0
1
548
1015
507
0
1
524
1015
507
0
1
488
1015
507
0
1
452
1015
507
0
1
422
1015
507
0
1
400
1015
507
0
1
386
1015
507
0
1
378
1015
507
0
1
375
1015
507
0
1
375
1015
507
0
1
376
1015
507
0
1
372
1014
507
0
1
359
1014
507
0
1
334
1014
507
0
1
300
1014
507
0
1
264
1014
507
0
1
232
1014
507
0
1
206
1014
507
0
1
188
1014
507
0
1
178
1014
507
0
1
172
1014
507
0
1
169
1014
507
0
1
169
1014
507
0
1
169
1014
507
0
1
166
1014
507
0
1
155
1014
507
0
1
133
1014
507
0
1
101
1014
507
0
1
66
1014
507
0
1
40
1014
507
0
1
28
1014
507
0
1
26
1014
507
0
1
26
1014
507
0
1
23
1014
507
0
1
17
1014
507
0
1
11
1014
507
0
1
6
1014
507
0
1
3
1014
507
0
1
2
1014
507
0
1
1
1014
507
0
1
0
1014
507
0
1
0
1014
507
0
1
0
1014
507
0
1
0
1014
507
0
1
0
1014
507
0
1
0
1014
507
0
1
0
1014
507
0
1
0
1014
507
0
1
0
1014
507
0
1
0
1014
507
0
1
0
1014
507
0
1
0
1014
507
0
1
0
1014
507
0
1
0
1014
507
0
1
0
1014
507
0
1
0
1014
507
0
1
0
1014
507
0
1
0
1014
507
0
1
1
1014
507
0
1
2
1014
507
0
1
4
1014
507
0
1
7
1014
507
0
1
12
1014
507
0
1
19
1014
507
0
1
26
1014
507
0
1
33
1014
507
0
1
38
1014
507
0
1
40
1014
507
0
1
40
1014
507
0
1
41
1014
507
0
1
47
1014
507
0
1
63
1014
507
0
1
91
1014
507
0
1
128
1014
507
0
1
166
1014
507
0
1
200
1014
507
0
1
225
1014
507
0
1
239
1014
507
0
1
246
1014
507
0
1
247
1014
507
0
1
247
1014
507
0
1
248
1014
507
0
1
254
1014
507
0
1
269
1014
507
0
1
295
1014
507
0
1
336
1014
507
0
1
392
1014
507
0
1
462
1014
507
0
1
538
1014
507
0
1
604
1014
507
0
1
650
1014
507
0
1
671
1014
507
0
1
670
1040
520
0
1
666
1040
520
0
1
684
1040
520
0
1
748
1040
520
0
1
860
1040
520
0
1
998
1040
520
0
1
1131
1040
520
0
1
1231
1040
520
0
1
1280
1040
520
0
1
1283
1040
520
0
1
1256
1040
520
1
1
1222
1040
520
0
1
1194
1040
520
0
1
1178
1040
520
0
1
1174
1040
520
0
1
1177
1040
520
0
1
1184
1040
520
0
1
1191
1040
520
0
1
1196
1040
520
0
1
1198
1040
520
0
1
1194
1040
520
0
1
1180
1040
520
0
1
1154
1040
520
0
1
1113
1040
520
0
1
1057
1040
520
0
1
987
1040
520
0
1
910
1040
520
0
1
842
1040
520
0
1
794
1040
520
0
1
770
1040
520
0
1
766
1040
520
0
1
764
1040
520
0
1
738
1040
520
0
1
667
1040
520
0
1
551
1040
520
0
1
410
1040
520
0
1
278
1040
520
0
1
177
1040
520
0
1
121
1040
520
0
1
102
1040
520
0
1
101
1040
520
0
1
99
1040
520
0
1
88
1040
520
0
1
70
1040
520
0
1
49
1040
520
0
1
32
1040
520
0
1
18
1040
520
0
1
10
1040
520
0
1
5
1040
520
0
1
2
1040
520
0
1
1
1040
520
0
1
0
1040
520
0
1
0
1040
520
0
1
0
1040
520
0
1
0
1040
520
0
1
0
1040
520
0
1
0
1040
520
0
1
0
1040
520
0
1
0
1040
520
0
1
0
1040
520
0
1
0
1040
520
0
1
0
1040
520
0
1
0
1040
520
0
1
0
1040
520
0
1
0
1040
520
0
1
1
1040
520
0
1
1
1040
520
0
1
3
1040
520
0
1
5
1040
520
0
1
7
1040
520
0
1
11
1040
520
0
1
15
1040
520
0
1
20
1040
520
0
1
24
1040
520
0
1
26
1040
520
0
1
27
1040
520
0
1
27
1040
520
0
1
30
1040
520
0
1
41
1040
520
0
1
65
1040
520
0
1
101
1040
520
0
1
144
1040
520
0
1
188
1040
520
0
1
224
1040
520
0
1
250
1040
520
0
1
265
1040
520
0
1
270
1040
520
0
1
271
1040
520
0
1
271
1040
520
0
1
275
1040
520
0
1
287
1040
520
0
1
314
1040
520
0
1
354
1040
520
0
1
408
1040
520
0
1
469
1040
520
0
1
536
1040
520
0
1
600
1040
520
0
1
654
1040
520
0
1
695
1040
520
0
1
719
1040
520
0
1
724
1040
520
0
1
720
1068
534
0
1
725
1068
534
0
1
762
1068
534
0
1
839
1068
534
0
1
950
1068
534
0
1
1070
1068
534
0
1
1168
1068
534
0
1
1222
1068
534
0
1
1228
1068
534
0
1
1199
1068
534
1
1
1156
1068
534
0
1
1114
1068
534
0
1
1084
1068
534
0
1
1065
1068
534
0
1
1059
1068
534
0
1
1062
1068
534
0
1
1070
1068
534
0
1
1077
1068
534
0
1
1080
1068
534
0
1
1076
1068
534
0
1
1055
1068
534
0
1
1019
1068
534
0
1
967
1068
534
0
1
906
1068
534
0
1
839
1068
534
0
1
774
1068
534
0
1
719
1068
534
0
1
676
1068
534
0
1
650
1068
534
0
1
642
1068
534
0
1
642
1068
534
0
1
633
1068
534
0
1
592
1068
534
0
1
512
1068
534
0
1
400
1068
534
0
1
280
1068
534
0
1
179
1068
534
0
1
114
1068
534
0
1
84
1068
534
0
1
77
1068
534
0
1
77
1068
534
0
1
75
1068
534
0
1
70
1068
534
0
1
62
1068
534
0
1
54
1068
534
0
1
45
1068
534
0
1
36
1068
534
0
1
29
1068
534
0
1
21
1068
534
0
1
14
1068
534
0
1
8
1068
534
0
1
4
1068
534
0
1
2
1068
534
0
1
2
1068
534
0
1
2
1068
534
0
1
2
1068
534
0
1
1
1068
534
0
1
1
1068
534
0
1
0
1068
534
0
1
0
1068
534
0
1
0
1068
534
0
1
0
1068
534
0
1
0
1068
534
0
1
0
1068
534
0
1
0
1068
534
0
1
1
1068
534
0
1
1
1068
534
0
1
3
1068
534
0
1
4
1068
534
0
1
6
1068
534
0
1
9
1068
534
0
1
12
1068
534
0
1
15
1068
534
0
1
18
1068
534
0
1
20
1068
534
0
1
20
1068
534
0
1
20
1068
534
0
1
22
1068
534
0
1
31
1068
534
0
1
50
1068
534
0
1
82
1068
534
0
1
125
1068
534
0
1
171
1068
534
0
1
212
1068
534
0
1
240
1068
534
0
1
256
1068
534
0
1
262
1068
534
0
1
263
1068
534
0
1
263
1068
534
0
1
270
1068
534
0
1
287
1068
534
0
1
319
1068
534
0
1
365
1068
534
0
1
421
1068
534
0
1
482
1068
534
0
1
543
1068
534
0
1
599
1068
534
0
1
646
1068
534
0
1
676
1068
534
0
1
690
1068
534
0
1
690
1068
534
0
1
689
1068
534
0
1
703
1068
534
0
1
749
1068
534
0
1
826
1068
534
0
1
923
1068
534
0
1
1013
1068
534
0
1
1079
1068
534
0
1
1105
1068
534
0
1
1096
1068
534
1
1
1066
1068
534
0
1
1023
1068
534
0
1
980
1068
534
0
1
943
1068
534
0
1
920
1068
534
0
1
907
1068
534
0
1
903
1068
534
0
1
905
1068
534
0
1
906
1068
534
0
1
901
1068
534
0
1
886
1068
534
0
1
858
1068
534
0
1
815
1068
534
0
1
762
1068
534
0
1
702
1068
534
0
1
641
1068
534
0
1
585
1068
534
0
1
537
1068
534
0
1
505
1068
534
0
1
489
1068
534
0
1
486
1068
534
0
1
485
1068
534
0
1
467
1068
534
0
1
419
1068
534
0
1
339
1068
534
0
1
242
1068
534
0
1
152
1068
534
0
1
84
1068
534
0
1
50
1068
534
0
1
39
1068
534
0
1
38
1068
534
0
1
38
1068
534
0
1
35
1068
534
0
1
31
1068
534
0
1
26
1068
534
0
1
23
1068
534
0
1
20
1068
534
0
1
18
1068
534
0
1
16
1068
534
0
1
14
1068
534
0
1
12
1068
534
0
1
8
1068
534
0
1
5
1068
534
0
1
2
1068
534
0
1
1
1068
534
0
1
0
1068
534
0
1
0
1068
534
0
1
0
1068
534
0
1
0
1068
534
0
1
0
1068
534
0
1
0
1068
534
0
1
0
1068
534
0
1
0
1068
534
0
1
0
1068
534
0
1
0
1068
534
0
1
1
1068
534
0
1
1
1068
534
0
1
3
1068
534
0
1
5
1068
534
0
1
7
1068
534
0
1
10
1068
534
0
1
13
1068
534
0
1
15
1068
534
0
1
18
1068
534
0
1
20
1068
534
0
1
21
1068
534
0
1
21
1068
534
0
1
22
1068
534
0
1
27
1068
534
0
1
40
1068
534
0
1
64
1068
534
0
1
98
1068
534
0
1
135
1068
534
0
1
169
1068
534
0
1
195
1068
534
0
1
212
1068
534
0
1
221
1068
534
0
1
223
1068
534
0
1
223
1068
534
0
1
225
1068
534
0
1
233
1068
534
0
1
251
1068
534
0
1
281
1068
534
0
1
322
1068
534
0
1
369
1068
534
0
1
420
1068
534
0
1
467
1068
534
0
1
507
1068
534
0
1
536
1068
534
0
1
551
1068
534
0
1
553
1068
534
0
1
551
1077
538
0
1
558
1077
538
0
1
589
1077
538
0
1
652
1077
538
0
1
734
1077
538
0
1
821
1077
538
0
1
885
1077
538
0
1
914
1077
538
0
1
912
1118
559
0
1
888
1118
559
0
1
855
1118
559
0
1
825
1118
559
0
1
802
1118
559
0
1
787
1118
559
0
1
778
1118
559
0
1
775
1118
559
0
1
776
1118
559
0
1
778
1118
559
0
1
778
1118
559
0
1
770
1118
559
0
1
752
1118
559
0
1
722
1118
559
0
1
681
1118
559
0
1
633
1118
559
0
1
583
1118
559
0
1
535
1118
559
0
1
494
1118
559
0
1
462
1118
559
0
1
444
1118
559
0
1
439
1118
559
0
1
439
1118
559
0
1
430
1118
559
0
1
396
1118
559
0
1
331
1118
559
0
1
248
1118
559
0
1
161
1118
559
0
1
96
1118
559
0
1
62
1118
559
0
1
52
1118
559
0
1
51
1118
559
0
1
50
1118
559
0
1
43
1118
559
0
1
32
1118
559
0
1
21
1118
559
0
1
13
1118
559
0
1
7
1118
559
0
1
4
1118
559
0
1
2
1118
559
0
1
1
1118
559
0
1
0
1118
559
0
1
0
1118
559
0
1
0
1118
559
0
1
0
1118
559
0
1
0
1118
559
0
1
0
1118
559
0
1
0
1118
559
0
1
0
1118
559
0
1
0
1118
559
0
1
0
1118
559
0
1
0
1118
559
0
1
0
1118
559
0
1
0
1118
559
0
1
0
1118
559
0
1
0
1118
559
0
1
0
1118
559
0
1
1
1118
559
0
1
1
1118
559
0
1
3
1118
559
0
1
4
1118
559
0
1
6
1118
559
0
1
9
1118
559
0
1
12
1118
559
0
1
16
1118
559
0
1
18
1118
559
0
1
20
1118
559
0
1
20
1118
559
0
1
20
1118
559
0
1
23
1118
559
0
1
34
1118
559
0
1
55
1118
559
0
1
87
1118
559
0
1
126
1118
559
0
1
164
1118
559
0
1
196
1118
559
0
1
219
1118
559
0
1
231
1118
559
0
1
235
1118
559
0
1
236
1118
559
0
1
236
1118
559
0
1
239
1118
559
0
1
250
1118
559
0
1
271
1118
559
0
1
305
1118
559
0
1
353
1118
559
0
1
412
1118
559
0
1
476
1118
559
0
1
539
1118
559
0
1
592
1118
559
0
1
626
1118
559
0
1
640
1118
559
0
1
640
1118
559
0
1
638
1118
559
0
1
652
1118
559
0
1
695
1118
559
0
1
768
1118
559
0
1
854
1118
559
0
1
931
1118
559
0
1
978
1118
559
0
1
990
1118
559
0
1
974
1161
580
0
1
942
1161
580
0
1
907
1161
580
0
1
880
1161
580
0
1
861
1161
580
0
1
850
1161
580
0
1
845
1161
580
0
1
843
1161
580
0
1
843
1161
580
0
1
843
1161
580
0
1
839
1161
580
0
1
829
1161
580
0
1
808
1161
580
0
1
774
1161
580
0
1
726
1161
580
0
1
668
1161
580
0
1
603
1161
580
0
1
538
1161
580
0
1
485
1161
580
0
1
449
1161
580
0
1
433
1161
580
0
1
431
1161
580
0
1
429
1161
580
0
1
412
1161
580
0
1
366
1161
580
0
1
293
1161
580
0
1
206
1161
580
0
1
129
1161
580
0
1
78
1161
580
0
1
56
1161
580
0
1
51
1161
580
0
1
51
1161
580
0
1
47
1161
580
0
1
36
1161
580
0
1
23
1161
580
0
1
11
1161
580
0
1
5
1161
580
0
1
2
1161
580
0
1
1
1161
580
0
1
1
1161
580
0
1
1
1161
580
0
1
1
1161
580
0
1
1
1161
580
0
1
1
1161
580
0
1
1
1161
580
0
1
0
1161
580
0
1
0
1161
580
0
1
0
1161
580
0
1
0
1161
580
0
1
0
1161
580
0
1
0
1161
580
0
1
0
1161
580
0
1
0
1161
580
0
1
0
1161
580
0
1
0
1161
580
0
1
1
1161
580
0
1
2
1161
580
0
1
3
1161
580
0
1
5
1161
580
0
1
7
1161
580
0
1
9
1161
580
0
1
12
1161
580
0
1
15
1161
580
0
1
18
1161
580
0
1
21
1161
580
0
1
22
1161
580
0
1
23
1161
580
0
1
23
1161
580
0
1
25
1161
580
0
1
35
1161
580
0
1
55
1161
580
0
1
92
1161
580
0
1
140
1161
580
0
1
190
1161
580
0
1
239
1161
580
0
1
275
1161
580
0
1
296
1161
580
0
1
305
1161
580
0
1
307
1161
580
0
1
307
1161
580
0
1
311
1161
580
0
1
326
1161
580
0
1
356
1161
580
0
1
406
1161
580
0
1
474
1161
580
0
1
556
1161
580
0
1
642
1161
580
0
1
 724
1042
521
0
1
790
1042
521
0
1
829
1042
521
0
1
841
1042
521
0
1
839
1042
521
0
1
841
1042
521
0
1
870
1042
521
0
1
941
1042
521
0
1
1048
1042
521
0
1
1171
1042
521
0
1
1280
1042
521
0
1
1348
1042
521
0
1
1371
1042
521
0
1
1357
1042
521
0
1
1321
1042
521
0
1
1277
1042
521
0
1
1237
1042
521
0
1
1203
1042
521
0
1
1182
1042
521
0
1
1173
1042
521
0
1
1171
1042
521
0
1
1174
1042
521
0
1
1177
1042
521
0
1
1174
1042
521
0
1
1160
1042
521
0
1
1131
1042
521
0
1
1080
1042
521
0
1
1013
1042
521
0
1
929
1042
521
0
1
843
1042
521
0
1
759
1042
521
0
1
692
1042
521
0
1
651
1042
521
0
1
636
1042
521
0
1
636
1042
521
0
1
630
1042
521
0
1
598
1042
521
0
1
524
1042
521
0
1
416
1042
521
0
1
292
1042
521
0
1
184
1042
521
0
1
113
1042
521
0
1
81
1042
521
0
1
74
1042
521
0
1
74
1042
521
0
1
70
1042
521
0
1
59
1042
521
0
1
44
1042
521
0
1
30
1042
521
0
1
18
1042
521
0
1
10
1042
521
0
1
5
1042
521
0
1
3
1042
521
0
1
1
1042
521
0
1
0
1042
521
0
1
0
1042
521
0
1
0
1042
521
0
1
0
1042
521
0
1
0
1042
521
0
1
0
1042
521
0
1
0
1042
521
0
1
0
1042
521
0
1
0
1042
521
0
1
0
1042
521
0
1
0
1042
521
0
1
0
1042
521
0
1
0
1042
521
0
1
1
1042
521
0
1
2
1042
521
0
1
3
1042
521
0
1
5
1042
521
0
1
9
1042
521
0
1
13
1042
521
0
1
17
1042
521
0
1
23
1042
521
0
1
29
1042
521
0
1
36
1042
521
0
1
42
1042
521
0
1
46
1042
521
0
1
47
1042
521
0
1
47
1042
521
0
1
49
1042
521
0
1
57
1042
521
0
1
78
1042
521
0
1
117
1042
521
0
1
170
1042
521
0
1
232
1042
521
0
1
293
1042
521
0
1
344
1042
521
0
1
380
1042
521
0
1
399
1042
521
0
1
406
1042
521
0
1
406
1042
521
0
1
407
1042
521
0
1
417
1042
521
0
1
443
1042
521
0
1
488
1042
521
0
1
555
1042
521
0
1
641
1042
521
0
1
737
1042
521
0
1
836
1042
521
0
1
919
1042
521
0
1
980
1042
521
0
1
1009
1042
521
0
1
1012
1042
521
0
1
1006
1042
521
0
1
1019
1042
521
0
1
1075
1042
521
0
1
1183
1042
521
0
1
1326
1042
521
0
1
1476
1042
521
0
1
1594
1042
521
0
1
1656
1042
521
0
1
1662
1042
521
0
1
1626
1042
521
0
1
1574
1042
521
0
1
1522
1042
521
0
1
1478
1042
521
0
1
1450
1042
521
0
1
1434
1042
521
0
1
1430
1042
521
0
1
1433
1042
521
0
1
1438
1042
521
0
1
1440
1042
521
0
1
1432
1042
521
0
1
1407
1042
521
0
1
1361
1042
521
0
1
1294
1042
521
0
1
1207
1042
521
0
1
1110
1042
521
0
1
1009
1042
521
0
1
923
1042
521
0
1
858
1042
521
0
1
824
1042
521
0
1
816
1042
521
0
1
815
1042
521
0
1
796
1042
521
0
1
734
1042
521
0
1
622
1042
521
0
1
477
1042
521
0
1
328
1042
521
0
1
208
1042
521
0
1
137
1042
521
0
1
111
1042
521
0
1
108
1042
521
0
1
107
1042
521
0
1
97
1042
521
0
1
79
1042
521
0
1
57
1042
521
0
1
36
1042
521
0
1
21
1042
521
0
1
12
1042
521
0
1
6
1042
521
0
1
3
1042
521
0
1
1
1042
521
0
1
0
1042
521
0
1
0
1042
521
0
1
0
1042
521
0
1
0
1042
521
0
1
0
1042
521
0
1
0
1042
521
0
1
0
1042
521
0
1
0
1042
521
0
1
0
1042
521
0
1
0
1042
521
0
1
0
1042
521
0
1
0
1042
521
0
1
0
1042
521
0
1
0
1042
521
0
1
0
1042
521
0
1
1
1042
521
0
1
2
1042
521
0
1
4
1042
521
0
1
8
1042
521
0
1
13
1042
521
0
1
18
1042
521
0
1
25
1042
521
0
1
32
1042
521
0
1
40
1042
521
0
1
45
1042
521
0
1
49
1042
521
0
1
49
1042
521
0
1
50
1042
521
0
1
55
1042
521
0
1
73
1042
521
0
1
107
1042
521
0
1
155
1042
521
0
1
211
1042
521
0
1
267
1042
521
0
1
318
1042
521
0
1
356
1042
521
0
1
381
1042
521
0
1
393
1042
521
0
1
395
1042
521
0
1
395
1042
521
0
1
400
1042
521
0
1
418
1042
521
0
1
452
1042
521
0
1
500
1042
521
0
1
556
1042
521
0
1
608
1042
521
0
1
650
1042
521
0
1
680
1042
521
0
1
699
1042
521
0
1
706
1042
521
0
1
705
1053
526
0
1
699
1053
526
0
1
694
1053
526
0
1
698
1053
526
0
1
723
1053
526
0
1
767
1053
526
0
1
826
1053
526
0
1
876
1053
526
0
1
904
1053
526
0
1
902
1082
541
0
1
870
1082
541
0
1
822
1082
541
0
1
768
1082
541
0
1
717
1082
541
0
1
673
1082
541
0
1
641
1082
541
0
1
623
1082
541
0
1
617
1082
541
0
1
620
1082
541
0
1
626
1082
541
0
1
626
1082
541
0
1
611
1082
541
0
1
578
1082
541
0
1
530
1082
541
0
1
474
1082
541
0
1
421
1082
541
0
1
379
1082
541
0
1
348
1082
541
0
1
326
1082
541
0
1
314
1082
541
0
1
309
1082
541
0
1
309
1082
541
0
1
307
1082
541
0
1
295
1082
541
0
1
265
1082
541
0
1
217
1082
541
0
1
158
1082
541
0
1
107
1082
541
0
1
73
1082
541
0
1
58
1082
541
0
1
56
1082
541
0
1
56
1082
541
0
1
54
1082
541
0
1
49
1082
541
0
1
42
1082
541
0
1
36
1082
541
0
1
29
1082
541
0
1
23
1082
541
0
1
17
1082
541
0
1
11
1082
541
0
1
7
1082
541
0
1
4
1082
541
0
1
3
1082
541
0
1
3
1082
541
0
1
3
1082
541
0
1
2
1082
541
0
1
1
1082
541
0
1
1
1082
541
0
1
0
1082
541
0
1
0
1082
541
0
1
0
1082
541
0
1
0
1082
541
0
1
0
1082
541
0
1
0
1082
541
0
1
0
1082
541
0
1
1
1082
541
0
1
2
1082
541
0
1
4
1082
541
0
1
7
1082
541
0
1
10
1082
541
0
1
14
1082
541
0
1
18
1082
541
0
1
22
1082
541
0
1
25
1082
541
0
1
28
1082
541
0
1
29
1082
541
0
1
29
1082
541
0
1
30
1082
541
0
1
38
1082
541
0
1
57
1082
541
0
1
93
1082
541
0
1
144
1082
541
0
1
200
1082
541
0
1
253
1082
541
0
1
297
1082
541
0
1
325
1082
541
0
1
337
1082
541
0
1
339
1082
541
0
1
339
1082
541
0
1
343
1082
541
0
1
357
1082
541
0
1
385
1082
541
0
1
430
1082
541
0
1
489
1082
541
0
1
556
1082
541
0
1
623
1082
541
0
1
686
1082
541
0
1
737
1082
541
0
1
775
1082
541
0
1
793
1082
541
0
1
794
1082
541
0
1
791
1096
548
0
1
799
1096
548
0
1
836
1096
548
0
1
904
1096
548
0
1
996
1096
548
0
1
1090
1096
548
0
1
1159
1096
548
0
1
1193
1096
548
0
1
1188
1096
548
1
3
1154
1096
548
0
3
1103
1096
548
0
3
1049
1096
548
0
3
999
1096
548
0
3
960
1096
548
0
3
935
1096
548
0
3
926
1096
548
0
3
925
1096
548
0
3
927
1096
548
0
3
925
1096
548
0
3
915
1096
548
0
3
891
1096
548
0
3
850
1096
548
0
3
796
1096
548
0
3
731
1096
548
0
3
665
1096
548
0
3
600
1096
548
0
3
547
1096
548
0
3
506
1096
548
0
3
486
1096
548
0
3
481
1096
548
0
3
481
1096
548
0
3
469
1096
548
0
3
428
1096
548
0
3
358
1096
548
0
3
264
1096
548
0
3
171
1096
548
0
3
100
1096
548
0
3
59
1096
548
0
3
45
1096
548
0
3
43
1096
548
0
3
43
1096
548
0
3
41
1096
548
0
3
38
1096
548
0
3
34
1096
548
0
3
30
1096
548
0
3
27
1096
548
0
3
25
1096
548
0
3
23
1096
548
0
3
21
1096
548
0
3
18
1096
548
0
3
14
1096
548
0
3
9
1096
548
0
3
5
1096
548
0
3
2
1096
548
0
3
1
1096
548
0
3
1
1096
548
0
3
1
1096
548
0
3
1
1096
548
0
3
0
1096
548
0
3
0
1096
548
0
3
0
1096
548
0
3
0
1096
548
0
3
0
1096
548
0
3
0
1096
548
0
3
0
1096
548
0
3
1
1096
548
0
3
2
1096
548
0
3
4
1096
548
0
3
6
1096
548
0
3
9
1096
548
0
3
12
1096
548
0
3
16
1096
548
0
3
20
1096
548
0
3
23
1096
548
0
3
24
1096
548
0
3
24
1096
548
0
3
26
1096
548
0
3
36
1096
548
0
3
59
1096
548
0
3
93
1096
548
0
3
134
1096
548
0
3
174
1096
548
0
3
206
1096
548
0
3
229
1096
548
0
3
241
1096
548
0
3
245
1096
548
0
3
245
1096
548
0
3
246
1096
548
0
3
251
1096
548
0
3
264
1096
548
0
3
288
1096
548
0
3
320
1096
548
0
3
361
1096
548
0
3
404
1096
548
0
3
449
1096
548
0
3
492
1096
548
0
3
529
1096
548
0
3
557
1096
548
0
3
573
1096
548
0
3
575
1096
548
0
3
572
1088
544
0
3
577
1088
544
0
3
607
1088
544
0
3
672
1088
544
0
3
761
1088
544
0
3
852
1088
544
0
3
913
1088
544
0
3
938
1088
544
0
3
925
1115
557
0
3
891
1115
557
0
3
852
1115
557
0
3
818
1115
557
0
3
795
1115
557
0
3
782
1115
557
0
3
778
1115
557
0
3
779
1115
557
0
3
782
1115
557
0
3
783
1115
557
0
3
780
1124
562
0
3
768
1124
562
0
3
744
1124
562
0
3
712
1124
562
0
3
671
1124
562
0
3
627
1124
562
0
3
582
1124
562
0
3
539
1124
562
0
3
500
1124
562
0
3
470
1124
562
0
3
453
1124
562
0
3
448
1124
562
0
3
448
1124
562
0
3
438
1124
562
0
3
404
1124
562
0
3
337
1124
562
0
3
246
1124
562
0
3
156
1124
562
0
3
92
1124
562
0
3
58
1124
562
0
3
48
1124
562
0
3
48
1124
562
0
3
46
1124
562
0
3
40
1124
562
0
3
30
1124
562
0
3
20
1124
562
0
3
13
1124
562
0
3
8
1124
562
0
3
5
1124
562
0
3
3
1124
562
0
3
1
1124
562
0
3
0
1124
562
0
3
0
1124
562
0
3
0
1124
562
0
3
0
1124
562
0
3
0
1124
562
0
3
0
1124
562
0
3
0
1124
562
0
3
0
1124
562
0
3
0
1124
562
0
3
0
1124
562
0
3
0
1124
562
0
3
0
1124
562
0
3
0
1124
562
0
3
0
1124
562
0
3
0
1124
562
0
3
0
1124
562
0
3
0
1124
562
0
3
1
1124
562
0
3
1
1124
562
0
3
3
1124
562
0
3
6
1124
562
0
3
9
1124
562
0
3
13
1124
562
0
3
17
1124
562
0
3
21
1124
562
0
3
24
1124
562
0
3
24
1124
562
0
3
25
1124
562
0
3
28
1124
562
0
3
40
1124
562
0
3
64
1124
562
0
3
101
1124
562
0
3
141
1124
562
0
3
180
1124
562
0
3
214
1124
562
0
3
237
1124
562
0
3
250
1124
562
0
3
255
1124
562
0
3
255
1124
562
0
3
256
1124
562
0
3
260
1124
562
0
3
272
1124
562
0
3
296
1124
562
0
3
334
1124
562
0
3
382
1124
562
0
3
438
1124
562
0
3
500
1124
562
0
3
558
1124
562
0
3
610
1124
562
0
3
652
1124
562
0
3
675
1124
562
0
3
681
1124
562
0
3
677
1123
561
0
3
681
1123
561
0
3
711
1123
561
0
3
776
1123
561
0
3
873
1123
561
0
3
973
1123
561
0
3
1050
1123
561
0
3
1084
1123
561
0
3
1076
1160
580
0
3
1041
1160
580
0
3
1001
1160
580
0
3
968
1160
580
0
3
942
1160
580
0
3
929
1160
580
0
3
923
1160
580
0
3
923
1160
580
0
3
926
1160
580
0
3
926
1160
580
0
3
923
1160
580
0
3
911
1160
580
0
3
886
1160
580
0
3
848
1160
580
0
3
800
1160
580
0
3
744
1160
580
0
3
682
1160
580
0
3
624
1160
580
0
3
570
1160
580
0
3
527
1160
580
0
3
501
1160
580
0
3
492
1160
580
0
3
492
1160
580
0
3
484
1160
580
0
3
450
1160
580
0
3
382
1160
580
0
3
285
1160
580
0
3
184
1160
580
0
3
104
1160
580
0
3
59
1160
580
0
3
43
1160
580
0
3
41
1160
580
0
3
40
1160
580
0
3
35
1160
580
0
3
26
1160
580
0
3
17
1160
580
0
3
9
1160
580
0
3
4
1160
580
0
3
2
1160
580
0
3
0
1160
580
0
3
0
1160
580
0
3
0
1160
580
0
3
0
1160
580
0
3
0
1160
580
0
3
0
1160
580
0
3
0
1160
580
0
3
0
1160
580
0
3
0
1160
580
0
3
0
1160
580
0
3
0
1160
580
0
3
0
1160
580
0
3
0
1160
580
0
3
0
1160
580
0
3
0
1160
580
0
3
0
1160
580
0
3
0
1160
580
0
3
0
1160
580
0
3
0
1160
580
0
3
0
1160
580
0
3
1
1160
580
0
3
2
1160
580
0
3
3
1160
580
0
3
6
1160
580
0
3
9
1160
580
0
3
13
1160
580
0
3
17
1160
580
0
3
20
1160
580
0
3
21
1160
580
0
3
21
1160
580
0
3
22
1160
580
0
3
27
1160
580
0
3
40
1160
580
0
3
63
1160
580
0
3
95
1160
580
0
3
131
1160
580
0
3
165
1160
580
0
3
193
1160
580
0
3
213
1160
580
0
3
222
1160
580
0
3
225
1160
580
0
3
225
1160
580
0
3
227
1160
580
0
3
235
1160
580
0
3
253
1160
580
0
3
283
1160
580
0
3
324
1160
580
0
3
372
1160
580
0
3
422
1160
580
0
3
470
1160
580
0
3
515
1160
580
0
3
552
1160
580
0
3
577
1160
580
0
3
586
1160
580
0
3
584
1145
572
0
3
583
1145
572
0
3
601
1145
572
0
3
655
1145
572
0
3
744
1145
572
0
3
848
1145
572
0
3
937
1145
572
0
3
991
1145
572
0
3
1002
1145
572
0
3
984
1171
585
0
3
952
1171
585
0
3
920
1171
585
0
3
896
1171
585
0
3
880
1171
585
0
3
872
1171
585
0
3
870
1171
585
0
3
873
1171
585
0
3
877
1171
585
0
3
877
1171
585
0
3
870
1171
585
0
3
853
1171
585
0
3
823
1171
585
0
3
782
1171
585
0
3
734
1171
585
0
3
683
1171
585
0
3
635
1171
585
0
3
590
1171
585
0
3
551
1171
585
0
3
525
1171
585
0
3
513
1171
585
0
3
512
1171
585
0
3
509
1171
585
0
3
 487
1082
541
0
3
431
1082
541
0
3
341
1082
541
0
3
236
1082
541
0
3
146
1082
541
0
3
87
1082
541
0
3
63
1082
541
0
3
59
1082
541
0
3
59
1082
541
0
3
54
1082
541
0
3
44
1082
541
0
3
32
1082
541
0
3
21
1082
541
0
3
13
1082
541
0
3
7
1082
541
0
3
4
1082
541
0
3
2
1082
541
0
3
1
1082
541
0
3
0
1082
541
0
3
0
1082
541
0
3
0
1082
541
0
3
0
1082
541
0
3
0
1082
541
0
3
0
1082
541
0
3
0
1082
541
0
3
0
1082
541
0
3
0
1082
541
0
3
0
1082
541
0
3
0
1082
541
0
3
0
1082
541
0
3
0
1082
541
0
3
0
1082
541
0
3
0
1082
541
0
3
0
1082
541
0
3
1
1082
541
0
3
1
1082
541
0
3
2
1082
541
0
3
3
1082
541
0
3
5
1082
541
0
3
7
1082
541
0
3
9
1082
541
0
3
11
1082
541
0
3
13
1082
541
0
3
14
1082
541
0
3
14
1082
541
0
3
14
1082
541
0
3
16
1082
541
0
3
23
1082
541
0
3
37
1082
541
0
3
60
1082
541
0
3
88
1082
541
0
3
118
1082
541
0
3
144
1082
541
0
3
165
1082
541
0
3
178
1082
541
0
3
186
1082
541
0
3
188
1082
541
0
3
189
1082
541
0
3
189
1082
541
0
3
193
1082
541
0
3
203
1082
541
0
3
222
1082
541
0
3
254
1082
541
0
3
299
1082
541
0
3
355
1082
541
0
3
419
1082
541
0
3
488
1082
541
0
3
552
1082
541
0
3
596
1082
541
0
3
614
1082
541
0
3
615
1082
541
0
3
616
1082
541
0
3
644
1082
541
0
3
717
1082
541
0
3
837
1082
541
0
3
973
1082
541
0
3
1095
1082
541
0
3
1176
1082
541
0
3
1204
1082
541
0
3
1194
1082
541
1
3
1166
1082
541
0
3
1140
1082
541
0
3
1127
1082
541
0
3
1125
1082
541
0
3
1130
1082
541
0
3
1137
1082
541
0
3
1144
1082
541
0
3
1149
1082
541
0
3
1152
1082
541
0
3
1150
1082
541
0
3
1141
1082
541
0
3
1122
1082
541
0
3
1090
1082
541
0
3
1044
1082
541
0
3
988
1082
541
0
3
924
1082
541
0
3
853
1082
541
0
3
789
1082
541
0
3
743
1082
541
0
3
723
1082
541
0
3
720
1082
541
0
3
716
1082
541
0
3
687
1082
541
0
3
613
1082
541
0
3
493
1082
541
0
3
357
1082
541
0
3
233
1082
541
0
3
147
1082
541
0
3
103
1082
541
0
3
91
1082
541
0
3
91
1082
541
0
3
87
1082
541
0
3
74
1082
541
0
3
55
1082
541
0
3
37
1082
541
0
3
22
1082
541
0
3
13
1082
541
0
3
7
1082
541
0
3
4
1082
541
0
3
2
1082
541
0
3
1
1082
541
0
3
1
1082
541
0
3
1
1082
541
0
3
1
1082
541
0
3
1
1082
541
0
3
1
1082
541
0
3
1
1082
541
0
3
1
1082
541
0
3
1
1082
541
0
3
1
1082
541
0
3
1
1082
541
0
3
1
1082
541
0
3
1
1082
541
0
3
1
1082
541
0
3
0
1082
541
0
3
0
1082
541
0
3
1
1082
541
0
3
3
1082
541
0
3
5
1082
541
0
3
7
1082
541
0
3
9
1082
541
0
3
11
1082
541
0
3
13
1082
541
0
3
14
1082
541
0
3
16
1082
541
0
3
17
1082
541
0
3
17
1082
541
0
3
17
1082
541
0
3
18
1082
541
0
3
23
1082
541
0
3
37
1082
541
0
3
61
1082
541
0
3
93
1082
541
0
3
129
1082
541
0
3
163
1082
541
0
3
191
1082
541
0
3
211
1082
541
0
3
221
1082
541
0
3
225
1082
541
0
3
226
1082
541
0
3
227
1082
541
0
3
233
1082
541
0
3
251
1082
541
0
3
283
1082
541
0
3
328
1082
541
0
3
381
1082
541
0
3
431
1082
541
0
3
472
1082
541
0
3
504
1082
541
0
3
523
1082
541
0
3
531
1082
541
0
3
531
1082
541
0
3
530
1082
541
0
3
536
1082
541
0
3
561
1082
541
0
3
608
1082
541
0
3
670
1082
541
0
3
734
1082
541
0
3
784
1082
541
0
3
806
1082
541
0
3
803
1086
543
0
3
779
1086
543
0
3
748
1086
543
0
3
721
1086
543
0
3
700
1086
543
0
3
687
1086
543
0
3
681
1086
543
0
3
681
1086
543
0
3
685
1086
543
0
3
692
1086
543
0
3
697
1086
543
0
3
695
1080
540
0
3
679
1080
540
0
3
647
1080
540
0
3
601
1080
540
0
3
551
1080
540
0
3
506
1080
540
0
3
470
1080
540
0
3
442
1080
540
0
3
426
1080
540
0
3
417
1080
540
0
3
416
1080
540
0
3
415
1080
540
0
3
407
1080
540
0
3
381
1080
540
0
3
334
1080
540
0
3
273
1080
540
0
3
210
1080
540
0
3
160
1080
540
0
3
134
1080
540
0
3
125
1080
540
0
3
125
1080
540
0
3
123
1080
540
0
3
115
1080
540
0
3
101
1080
540
0
3
87
1080
540
0
3
74
1080
540
0
3
63
1080
540
0
3
54
1080
540
0
3
47
1080
540
0
3
41
1080
540
0
3
37
1080
540
0
3
36
1080
540
0
3
36
1080
540
0
3
35
1080
540
0
3
33
1080
540
0
3
27
1080
540
0
3
20
1080
540
0
3
13
1080
540
0
3
9
1080
540
0
3
8
1080
540
0
3
8
1080
540
0
3
8
1080
540
0
3
7
1080
540
0
3
7
1080
540
0
3
6
1080
540
0
3
6
1080
540
0
3
5
1080
540
0
3
4
1080
540
0
3
4
1080
540
0
3
5
1080
540
0
3
6
1080
540
0
3
8
1080
540
0
3
9
1080
540
0
3
11
1080
540
0
3
12
1080
540
0
3
13
1080
540
0
3
13
1080
540
0
3
13
1080
540
0
3
14
1080
540
0
3
19
1080
540
0
3
30
1080
540
0
3
49
1080
540
0
3
75
1080
540
0
3
107
1080
540
0
3
141
1080
540
0
3
171
1080
540
0
3
197
1080
540
0
3
215
1080
540
0
3
222
1080
540
0
3
224
1080
540
0
3
224
1080
540
0
3
229
1080
540
0
3
245
1080
540
0
3
277
1080
540
0
3
330
1080
540
0
3
403
1080
540
0
3
490
1080
540
0
3
582
1080
540
0
3
668
1080
540
0
3
734
1080
540
0
3
773
1080
540
0
3
783
1080
540
0
3
782
1083
541
0
3
791
1083
541
0
3
835
1083
541
0
3
922
1083
541
0
3
1041
1083
541
0
3
1165
1083
541
0
3
1265
1083
541
0
3
1322
1083
541
0
3
1337
1083
541
0
3
1323
1083
541
1
3
1297
1083
541
0
3
1270
1083
541
0
3
1245
1083
541
0
3
1227
1083
541
0
3
1213
1083
541
0
3
1205
1083
541
0
3
1205
1083
541
0
3
1208
1083
541
0
3
1211
1083
541
0
3
1207
1083
541
0
3
1192
1083
541
0
3
1160
1083
541
0
3
1106
1083
541
0
3
1033
1083
541
0
3
946
1083
541
0
3
853
1083
541
0
3
766
1083
541
0
3
699
1083
541
0
3
658
1083
541
0
3
646
1083
541
0
3
646
1083
541
0
3
635
1083
541
0
3
589
1083
541
0
3
503
1083
541
0
3
383
1083
541
0
3
259
1083
541
0
3
158
1083
541
0
3
96
1083
541
0
3
70
1083
541
0
3
66
1083
541
0
3
66
1083
541
0
3
61
1083
541
0
3
51
1083
541
0
3
39
1083
541
0
3
27
1083
541
0
3
18
1083
541
0
3
10
1083
541
0
3
5
1083
541
0
3
3
1083
541
0
3
2
1083
541
0
3
1
1083
541
0
3
1
1083
541
0
3
1
1083
541
0
3
1
1083
541
0
3
0
1083
541
0
3
0
1083
541
0
3
0
1083
541
0
3
0
1083
541
0
3
0
1083
541
0
3
0
1083
541
0
3
0
1083
541
0
3
0
1083
541
0
3
0
1083
541
0
3
0
1083
541
0
3
0
1083
541
0
3
0
1083
541
0
3
0
1083
541
0
3
0
1083
541
0
3
0
1083
541
0
3
1
1083
541
0
3
2
1083
541
0
3
3
1083
541
0
3
5
1083
541
0
3
7
1083
541
0
3
9
1083
541
0
3
11
1083
541
0
3
12
1083
541
0
3
12
1083
541
0
3
12
1083
541
0
3
14
1083
541
0
3
18
1083
541
0
3
29
1083
541
0
3
45
1083
541
0
3
66
1083
541
0
3
90
1083
541
0
3
115
1083
541
0
3
136
1083
541
0
3
150
1083
541
0
3
159
1083
541
0
3
162
1083
541
0
3
162
1083
541
0
3
166
1083
541
0
3
180
1083
541
0
3
210
1083
541
0
3
258
1083
541
0
3
320
1083
541
0
3
387
1083
541
0
3
455
1083
541
0
3
516
1083
541
0
3
559
1083
541
0
3
578
1083
541
0
3
580
1083
541
0
3
580
1083
541
0
3
599
1083
541
0
3
655
1083
541
0
3
747
1083
541
0
3
859
1083
541
0
3
959
1083
541
0
3
1030
1083
541
0
3
1065
1083
541
0
3
1069
1083
541
0
3
1059
1112
556
0
3
1045
1112
556
0
3
1033
1112
556
0
3
1022
1112
556
0
3
1011
1112
556
0
3
1001
1112
556
0
3
994
1112
556
0
3
990
1112
556
0
3
990
1112
556
0
3
992
1112
556
0
3
989
1130
565
0
3
974
1130
565
0
3
944
1130
565
0
3
896
1130
565
0
3
835
1130
565
0
3
767
1130
565
0
3
700
1130
565
0
3
639
1130
565
0
3
596
1130
565
0
3
575
1130
565
0
3
572
1130
565
0
3
570
1130
565
0
3
549
1130
565
0
3
491
1130
565
0
3
397
1130
565
0
3
285
1130
565
0
3
184
1130
565
0
3
114
1130
565
0
3
77
1130
565
0
3
68
1130
565
0
3
68
1130
565
0
3
65
1130
565
0
3
57
1130
565
0
3
43
1130
565
0
3
30
1130
565
0
3
19
1130
565
0
3
12
1130
565
0
3
7
1130
565
0
3
4
1130
565
0
3
3
1130
565
0
3
2
1130
565
0
3
1
1130
565
0
3
1
1130
565
0
3
1
1130
565
0
3
1
1130
565
0
3
1
1130
565
0
3
1
1130
565
0
3
1
1130
565
0
3
0
1130
565
0
3
0
1130
565
0
3
0
1130
565
0
3
0
1130
565
0
3
0
1130
565
0
3
0
1130
565
0
3
0
1130
565
0
3
0
1130
565
0
3
0
1130
565
0
3
0
1130
565
0
3
1
1130
565
0
3
2
1130
565
0
3
5
1130
565
0
3
8
1130
565
0
3
12
1130
565
0
3
16
1130
565
0
3
18
1130
565
0
3
19
1130
565
0
3
20
1130
565
0
3
20
1130
565
0
3
20
1130
565
0
3
20
1130
565
0
3
22
1130
565
0
3
29
1130
565
0
3
42
1130
565
0
3
63
1130
565
0
3
89
1130
565
0
3
119
1130
565
0
3
147
1130
565
0
3
173
1130
565
0
3
192
1130
565
0
3
203
1130
565
0
3
207
1130
565
0
3
207
1130
565
0
3
210
1130
565
0
3
225
1130
565
0
3
259
1130
565
0
3
312
1130
565
0
3
386
1130
565
0
3
472
1130
565
0
3
558
1130
565
0
3
633
1130
565
0
3
687
1130
565
0
3
713
1130
565
0
3
718
1130
565
0
3
715
1120
560
0
3
724
1120
560
0
3
768
1120
560
0
3
851
1120
560
0
3
960
1120
560
0
3
1068
1120
560
0
3
1154
1120
560
0
3
1203
1120
560
0
3
1217
1120
560
0
3
1208
1120
560
1
3
1187
1120
560
0
3
1164
1120
560
0
3
1139
1120
560
0
3
1119
1120
560
0
3
1100
1120
560
0
3
1088
1120
560
0
3
1085
1120
560
0
3
1088
1120
560
0
3
1094
1120
560
0
3
1095
1120
560
0
3
1083
1120
560
0
3
1050
1120
560
0
3
997
1120
560
0
3
923
1120
560
0
3
836
1120
560
0
3
750
1120
560
0
3
674
1120
560
0
3
618
1120
560
0
3
588
1120
560
0
3
580
1120
560
0
3
580
1120
560
0
3
568
1120
560
0
3
522
1120
560
0
3
439
1120
560
0
3
331
1120
560
0
3
222
1120
560
0
3
136
1120
560
0
3
85
1120
560
0
3
64
1120
560
0
3
60
1120
560
0
3
60
1120
560
0
3
57
1120
560
0
3
52
1120
560
0
3
44
1120
560
0
3
37
1120
560
0
3
29
1120
560
0
3
22
1120
560
0
3
15
1120
560
0
3
10
1120
560
0
3
5
1120
560
0
3
3
1120
560
0
3
2
1120
560
0
3
1
1120
560
0
3
1
1120
560
0
3
1
1120
560
0
3
1
1120
560
0
3
0
1120
560
0
3
0
1120
560
0
3
0
1120
560
0
3
0
1120
560
0
3
0
1120
560
0
3
0
1120
560
0
3
0
1120
560
0
3
0
1120
560
0
3
0
1120
560
0
3
0
1120
560
0
3
1
1120
560
0
3
2
1120
560
0
3
5
1120
560
0
3
8
1120
560
0
3
13
1120
560
0
3
17
1120
560
0
3
21
1120
560
0
3
23
1120
560
0
3
25
1120
560
0
3
26
1120
560
0
3
26
1120
560
0
3
26
1120
560
0
3
31
1120
560
0
3
44
1120
560
0
3
71
1120
560
0
3
111
1120
560
0
3
162
1120
560
0
3
215
1120
560
0
3
261
1120
560
0
3
295
1120
560
0
3
314
1120
560
0
3
320
1120
560
0
3
320
1120
560
0
3
324
1120
560
0
3
342
1120
560
0
3
378
1120
560
0
3
434
1120
560
0
3
508
1120
560
0
3
588
1120
560
0
3
667
1120
560
0
3
737
1120
560
0
3
791
1120
560
0
3
825
1120
560
0
3
836
1120
560
0
3
834
1122
561
0
3
833
1122
561
0
3
853
1122
561
0
3
909
1122
561
0
3
998
1122
561
0
3
1098
1122
561
0
3
1184
1122
561
0
3
1240
1122
561
0
3
1261
1122
561
0
3
1254
1122
561
1
3
1227
1122
561
0
3
1188
1122
561
0
3
1140
1122
561
0
3
1091
1122
561
0
3
1049
1122
561
0
3
1017
1122
561
0
3
999
1122
561
0
3
994
1122
561
0
3
995
1122
561
0
3
992
1122
561
0
3
976
1122
561
0
3
941
1122
561
0
3
886
1122
561
0
3
814
1122
561
0
3
735
1122
561
0
3
655
1122
561
0
3
584
1122
561
0
3
528
1122
561
0
3
492
1122
561
0
3
477
1122
561
0
3
476
1122
561
0
3
473
1122
561
0
3
449
1122
561
0
3
390
1122
561
0
3
300
1122
561
0
3
199
1122
561
0
3
112
1122
561
0
3
56
1122
561
0
3
30
1122
561
0
3
24
1122
561
0
3
24
1122
561
0
3
23
1122
561
0
3
20
1122
561
0
3
16
1122
561
0
3
13
1122
561
0
3
11
1122
561
0
3
9
1122
561
0
3
9
1122
561
0
3
8
1122
561
0
3
7
1122
561
0
3
5
1122
561
0
3
3
1122
561
0
3
2
1122
561
0
3
1
1122
561
0
3
0
1122
561
0
3
0
1122
561
0
3
0
1122
561
0
3
0
1122
561
0
3
0
1122
561
0
3
0
1122
561
0
3
0
1122
561
0
3
0
1122
561
0
3
1
1122
561
0
3
1
1122
561
0
3
1
1122
561
0
3
1
1122
561
0
3
1
1122
561
0
3
1
1122
561
0
3
2
1122
561
0
3
4
1122
561
0
3
7
1122
561
0
3
10
1122
561
0
3
14
1122
561
0
3
18
1122
561
0
3
22
1122
561
0
3
26
1122
561
0
3
28
1122
561
0
3
30
1122
561
0
3
30
1122
561
0
3
31
1122
561
0
3
38
1122
561
0
3
57
1122
561
0
3
94
1122
561
0
3
144
1122
561
0
3
200
1122
561
0
3
254
1122
561
0
3
297
1122
561
0
3
325
1122
561
0
3
337
1122
561
0
3
338
1122
561
0
3
339
1122
561
0
3
349
1122
561
0
3
375
1122
561
0
3
420
1122
561
0
3
482
1122
561
0
3
552
1122
561
0
3
623
1122
561
0
3
687
1122
561
0
3
736
1122
561
0
3
768
1122
561
0
3
783
1122
561
0
3
784
1122
561
0
3
780
1120
560
0
3
787
1120
560
0
3
819
1120
560
0
3
883
1120
560
0
3
971
1120
560
0
3
1056
1120
560
0
3
1124
1120
560
0
3
1159
1120
560
0
3
1162
1120
560
0
3
1143
1120
560
1
3
1109
1120
560
0
3
1066
1120
560
0
3
1020
1120
560
0
3
978
1120
560
0
3
943
1120
560
0
3
921
1120
560
0
3
912
1120
560
0
3
912
1120
560
0
3
912
1120
560
0
3
903
1120
560
0
3
877
1120
560
0
3
831
1120
560
0
3
769
1120
560
0
3
699
1120
560
0
3
629
1120
560
0
3
564
1120
560
0
3
514
1120
560
0
3
479
1120
560
0
3
462
1120
560
0
3
458
1120
560
0
3
458
1120
560
0
3
447
1120
560
0
3
411
1120
560
0
3
343
1120
560
0
3
253
1120
560
0
3
166
1120
560
0
3
99
1120
560
0
3
62
1120
560
0
3
52
1120
560
0
3
51
1120
560
0
3
49
1120
560
0
3
42
1120
560
0
3
31
1120
560
0
3
21
1120
560
0
3
12
1120
560
0
3
7
1120
560
0
3
3
1120
560
0
3
2
1120
560
0
3
1
1120
560
0
3
0
1120
560
0
3
0
1120
560
0
3
0
1120
560
0
3
0
1120
560
0
3
0
1120
560
0
3
0
1120
560
0
3
0
1120
560
0
3
0
1120
560
0
3
1
1120
560
0
3
1
1120
560
0
3
0
1120
560
0
3
0
1120
560
0
3
1
1120
560
0
3
1
1120
560
0
3
1
1120
560
0
3
2
1120
560
0
3
2
1120
560
0
3
2
1120
560
0
3
3
1120
560
0
3
4
1120
560
0
3
8
1120
560
0
3
13
1120
560
0
3
18
1120
560
0
3
23
1120
560
0
3
26
1120
560
0
3
28
1120
560
0
3
28
1120
560
0
3
28
1120
560
0
3
28
1120
560
0
3
31
1120
560
0
3
39
1120
560
0
3
56
1120
560
0
3
86
1120
560
0
3
129
1120
560
0
3
180
1120
560
0
3
228
1120
560
0
3
269
1120
560
0
3
295
1120
560
0
3
307
1120
560
0
3
309
1120
560
0
3
310
1120
560
0
3
315
1120
560
0
3
333
1120
560
